PE IR       SPECTRUM    SPECTRUM    ASCII       PEDS        1.60        ,
-1,
SPIKED~1.ASC,
15/01/10,
16:34.0,
15/01/10,
16:34.0,
Admin,
canola oil,
1000,
10,
,
,
,
,
,
,
,
,
,
"502,2.19",
LITAO3,
MIR,
KBR,
49809,
0.3,
1,
1,
STRONG,
RATIO,
SPECTRUM,
,
,
DOUBLE,
10,
BI DIRECTIONAL,
2,
,
0,
,
,
#HDR,
-1,
-1,
#GR,
CM-1,
A,
1.19209E-07,
0,
4000,
-0.5,
6001,
8,
0.132701,
-0.000966,
#DATA,
4000,0.001714
3999.5,0.002578
3999,0.001957
3998.5,0.001573
3998,0.002119
3997.5,0.002287
3997,0.002135
3996.5,0.001229
3996,0.000852
3995.5,0.001573
3995,0.00092
3994.5,0.000362
3994,0.000769
3993.5,0.000333
3993,0.000354
3992.5,0.001031
3992,0.002005
3991.5,0.00247
3991,0.002052
3990.5,0.001279
3990,0.000864
3989.5,0.000707
3989,0.000787
3988.5,0.000897
3988,0.000507
3987.5,0.000832
3987,0.001801
3986.5,0.00129
3986,0.000331
3985.5,0.000288
3985,0.000495
3984.5,0.000636
3984,0.001152
3983.5,0.002032
3983,0.003025
3982.5,0.002665
3982,0.001259
3981.5,0.001031
3981,0.001891
3980.5,0.002242
3980,0.001684
3979.5,0.001128
3979,0.000854
3978.5,0.00125
3978,0.001586
3977.5,0.001181
3977,0.001566
3976.5,0.001486
3976,0.001239
3975.5,0.001154
3975,0.000681
3974.5,0.00136
3974,0.001801
3973.5,0.001365
3973,0.001314
3972.5,0.001071
3972,0.001035
3971.5,0.001252
3971,0.001452
3970.5,0.001521
3970,0.000927
3969.5,0.000776
3969,0.000522
3968.5,0.000336
3968,0.001433
3967.5,0.001989
3967,0.001417
3966.5,0.000981
3966,0.001074
3965.5,0.001856
3965,0.001879
3964.5,0.000341
3964,-0.000001
3963.5,0.001209
3963,0.001678
3962.5,0.001259
3962,0.000913
3961.5,0.00131
3961,0.001368
3960.5,0.000864
3960,0.000578
3959.5,0.00085
3959,0.001194
3958.5,0.001694
3958,0.002627
3957.5,0.002393
3957,0.001718
3956.5,0.001191
3956,0.000391
3955.5,0.000862
3955,0.000693
3954.5,0.000243
3954,0.000535
3953.5,0.000404
3953,0.001385
3952.5,0.001614
3952,0.001568
3951.5,0.001142
3951,0.001013
3950.5,0.001227
3950,0.001681
3949.5,0.002327
3949,0.002302
3948.5,0.002087
3948,0.001508
3947.5,0.001518
3947,0.002553
3946.5,0.003182
3946,0.002767
3945.5,0.001468
3945,0.000353
3944.5,-0.000251
3944,0.000291
3943.5,0.001177
3943,0.001974
3942.5,0.001839
3942,0.000961
3941.5,0.000696
3941,0.000875
3940.5,0.001432
3940,0.001312
3939.5,0.000975
3939,0.000883
3938.5,0.0009
3938,0.001503
3937.5,0.001576
3937,0.000746
3936.5,0.000399
3936,0.000688
3935.5,0.000991
3935,0.001581
3934.5,0.001826
3934,0.001335
3933.5,0.000832
3933,0.00125
3932.5,0.001842
3932,0.001708
3931.5,0.001422
3931,0.001152
3930.5,0.000626
3930,0.000774
3929.5,0.001678
3929,0.00231
3928.5,0.001887
3928,0.001073
3927.5,0.001046
3927,0.001257
3926.5,0.001221
3926,0.000578
3925.5,0.00085
3925,0.001114
3924.5,0.001415
3924,0.002
3923.5,0.001463
3923,0.000913
3922.5,0.001553
3922,0.001633
3921.5,0.001224
3921,0.001558
3920.5,0.001907
3920,0.001242
3919.5,0.000683
3919,0.001086
3918.5,0.001944
3918,0.001609
3917.5,0.000737
3917,0.00145
3916.5,0.002965
3916,0.002685
3915.5,0.001595
3915,0.001126
3914.5,0.000923
3914,0.000978
3913.5,0.001207
3913,0.001941
3912.5,0.002258
3912,0.002012
3911.5,0.001826
3911,0.001397
3910.5,0.001902
3910,0.002172
3909.5,0.002084
3909,0.002307
3908.5,0.001696
3908,0.00139
3907.5,0.001471
3907,0.001069
3906.5,0.001445
3906,0.001762
3905.5,0.00209
3905,0.0024
3904.5,0.001984
3904,0.001463
3903.5,0.000213
3903,-0.000125
3902.5,0.000852
3902,0.001616
3901.5,0.002252
3901,0.00245
3900.5,0.00155
3900,0.001576
3899.5,0.002129
3899,0.002267
3898.5,0.002029
3898,0.001324
3897.5,0.000996
3897,0.001415
3896.5,0.001729
3896,0.000968
3895.5,0.001126
3895,0.001952
3894.5,0.00145
3894,0.000717
3893.5,0.000789
3893,0.000425
3892.5,0.000961
3892,0.001926
3891.5,0.001876
3891,0.00134
3890.5,0.001466
3890,0.001809
3889.5,0.002154
3889,0.002467
3888.5,0.002283
3888,0.001485
3887.5,0.001448
3887,0.001832
3886.5,0.001106
3886,0.000324
3885.5,0.000459
3885,0.000888
3884.5,0.001116
3884,0.00024
3883.5,0.000192
3883,0.000996
3882.5,0.001063
3882,0.00143
3881.5,0.001546
3881,0.001892
3880.5,0.002427
3880,0.002557
3879.5,0.002528
3879,0.001759
3878.5,0.001254
3878,0.001972
3877.5,0.002365
3877,0.001872
3876.5,0.001488
3876,0.001423
3875.5,0.001104
3875,0.000049
3874.5,-0.000293
3874,0.000525
3873.5,0.000812
3873,0.000522
3872.5,0.001279
3872,0.001304
3871.5,0.000862
3871,0.001473
3870.5,0.001629
3870,0.001001
3869.5,0.000756
3869,0.001994
3868.5,0.001842
3868,0.001099
3867.5,0.001025
3867,0.00085
3866.5,0.001433
3866,0.002505
3865.5,0.002062
3865,0.000966
3864.5,0.001091
3864,0.001834
3863.5,0.00202
3863,0.001216
3862.5,0.000722
3862,0.001114
3861.5,0.000281
3861,0.000197
3860.5,0.002597
3860,0.003503
3859.5,0.002548
3859,0.001917
3858.5,0.001079
3858,0.000402
3857.5,0.000616
3857,0.000188
3856.5,0.000412
3856,0.001485
3855.5,0.002172
3855,0.001759
3854.5,0.001249
3854,0.000822
3853.5,-0.000213
3853,0.00049
3852.5,0.001501
3852,0.001809
3851.5,0.001279
3851,0.000596
3850.5,0.001098
3850,0.002357
3849.5,0.003045
3849,0.001926
3848.5,0.000406
3848,-0.000033
3847.5,0.001214
3847,0.002248
3846.5,0.001901
3846,0.001688
3845.5,0.001433
3845,0.000527
3844.5,-0.000397
3844,-0.000014
3843.5,0.000376
3843,0.000502
3842.5,0.000585
3842,0.000865
3841.5,0.000703
3841,0.00101
3840.5,0.001525
3840,0.001789
3839.5,0.001609
3839,0.000253
3838.5,-0.000251
3838,0.000537
3837.5,0.000283
3837,0.00087
3836.5,0.002377
3836,0.001891
3835.5,0.000606
3835,0.000482
3834.5,0.00096
3834,0.001748
3833.5,0.002673
3833,0.002323
3832.5,0.001049
3832,0.001053
3831.5,0.001942
3831,0.002347
3830.5,0.002938
3830,0.002029
3829.5,0.000532
3829,0.000986
3828.5,0.001445
3828,0.000699
3827.5,0.000401
3827,0.000558
3826.5,0.000316
3826,0.000566
3825.5,0.001516
3825,0.001979
3824.5,0.00205
3824,0.001772
3823.5,0.001335
3823,0.001327
3822.5,0.000654
3822,-0.000308
3821.5,-0.000533
3821,-0.000567
3820.5,0.000334
3820,0.000542
3819.5,0.000057
3819,0.001723
3818.5,0.002333
3818,0.001864
3817.5,0.001932
3817,0.001545
3816.5,0.000976
3816,0.001405
3815.5,0.001744
3815,0.001475
3814.5,0.000875
3814,0.000691
3813.5,0.000578
3813,0.000404
3812.5,0.000978
3812,0.000938
3811.5,0.000699
3811,0.001209
3810.5,0.001797
3810,0.001653
3809.5,0.001355
3809,0.000947
3808.5,0.000505
3808,0.000703
3807.5,0.000799
3807,0.000517
3806.5,0.001201
3806,0.001997
3805.5,0.00251
3805,0.00205
3804.5,0.000864
3804,0.000726
3803.5,0.000912
3803,0.001023
3802.5,0.001508
3802,0.000603
3801.5,-0.000629
3801,0.000409
3800.5,0.001147
3800,0.000824
3799.5,0.001172
3799,0.001342
3798.5,0.000933
3798,0.000776
3797.5,0.000676
3797,0.000459
3796.5,0.00131
3796,0.00155
3795.5,0.001186
3795,0.001297
3794.5,0.002009
3794,0.001881
3793.5,0.001025
3793,0.001154
3792.5,0.000844
3792,0.000787
3791.5,0.001167
3791,0.000779
3790.5,0.000671
3790,0.001144
3789.5,0.00097
3789,0.000854
3788.5,0.000837
3788,0.000998
3787.5,0.000857
3787,0.001084
3786.5,0.001249
3786,0.001325
3785.5,0.002248
3785,0.002145
3784.5,0.001305
3784,0.001121
3783.5,0.001093
3783,0.001081
3782.5,0.000988
3782,0.001063
3781.5,0.001137
3781,0.001142
3780.5,0.00148
3780,0.00156
3779.5,0.000538
3779,0.000356
3778.5,0.001046
3778,0.001267
3777.5,0.001443
3777,0.001816
3776.5,0.001811
3776,0.001041
3775.5,0.000671
3775,0.001525
3774.5,0.002487
3774,0.002332
3773.5,0.001541
3773,0.001427
3772.5,0.00144
3772,0.001131
3771.5,0.001109
3771,0.00089
3770.5,0.000684
3770,0.000825
3769.5,0.001415
3769,0.002147
3768.5,0.00248
3768,0.002007
3767.5,0.001059
3767,0.00055
3766.5,0.000727
3766,0.001039
3765.5,0.001284
3765,0.001907
3764.5,0.001103
3764,0.000795
3763.5,0.001084
3763,0.001669
3762.5,0.002229
3762,0.001608
3761.5,0.001159
3761,0.001066
3760.5,0.000742
3760,0.000225
3759.5,0.000329
3759,0.000742
3758.5,0.00017
3758,0.000246
3757.5,0.001176
3757,0.001071
3756.5,0.001508
3756,0.002347
3755.5,0.001668
3755,0.001686
3754.5,0.0028
3754,0.001787
3753.5,-0.000245
3753,0.000155
3752.5,0.00095
3752,0.000963
3751.5,0.000578
3751,0.000907
3750.5,0.001999
3750,0.000937
3749.5,-0.000241
3749,0.001836
3748.5,0.003635
3748,0.002968
3747.5,0.002302
3747,0.002355
3746.5,0.002828
3746,0.002525
3745.5,0.00236
3745,0.003297
3744.5,0.002698
3744,0.00279
3743.5,0.003049
3743,0.001771
3742.5,0.00138
3742,0.001397
3741.5,0.000623
3741,0.000681
3740.5,0.00149
3740,0.00138
3739.5,0.001428
3739,0.001237
3738.5,0.001088
3738,0.000903
3737.5,0.000835
3737,0.00143
3736.5,0.001084
3736,0.000016
3735.5,0.001006
3735,0.002072
3734.5,0.001094
3734,0.000286
3733.5,0.000414
3733,0.001585
3732.5,0.003109
3732,0.003277
3731.5,0.003227
3731,0.002763
3730.5,0.000804
3730,0.000283
3729.5,0.001869
3729,0.003174
3728.5,0.002405
3728,0.00125
3727.5,0.00151
3727,0.001874
3726.5,0.001189
3726,0.001516
3725.5,0.00129
3725,0.000707
3724.5,0.001372
3724,0.002237
3723.5,0.001608
3723,0.001344
3722.5,0.000387
3722,-0.000289
3721.5,0.000965
3721,0.001209
3720.5,0.00101
3720,0.002263
3719.5,0.003638
3719,0.001751
3718.5,-0.000066
3718,0.000683
3717.5,0.000935
3717,0.001211
3716.5,0.001641
3716,0.001244
3715.5,0.000975
3715,0.001244
3714.5,0.001523
3714,0.001711
3713.5,0.000832
3713,0.000303
3712.5,0.001187
3712,0.001942
3711.5,0.001491
3711,0.001836
3710.5,0.00211
3710,0.001576
3709.5,0.001189
3709,0.001766
3708.5,0.001995
3708,0.001495
3707.5,0.001392
3707,0.001621
3706.5,0.001633
3706,0.000932
3705.5,0.000707
3705,0.000918
3704.5,0.0013
3704,0.001629
3703.5,0.001169
3703,0.000402
3702.5,0.000581
3702,0.001352
3701.5,0.001751
3701,0.001468
3700.5,0.000425
3700,0.000286
3699.5,0.000641
3699,0.000505
3698.5,0.000482
3698,0.001393
3697.5,0.001475
3697,0.001119
3696.5,0.001033
3696,0.001237
3695.5,0.001422
3695,0.001189
3694.5,0.00049
3694,0.000703
3693.5,0.001812
3693,0.001513
3692.5,0.000406
3692,0.000459
3691.5,0.00145
3691,0.001161
3690.5,0.000321
3690,0.000903
3689.5,0.002082
3689,0.002057
3688.5,0.001909
3688,0.002257
3687.5,0.000862
3687,0.00017
3686.5,0.001103
3686,0.002402
3685.5,0.002638
3685,0.00213
3684.5,0.001668
3684,0.00088
3683.5,0.000508
3683,0.00096
3682.5,0.00133
3682,0.001691
3681.5,0.002039
3681,0.000937
3680.5,0.000827
3680,0.002194
3679.5,0.001957
3679,0.000902
3678.5,0.001083
3678,0.001448
3677.5,0.002252
3677,0.00285
3676.5,0.001756
3676,0.000996
3675.5,0.001443
3675,0.00128
3674.5,0.001103
3674,0.001796
3673.5,0.001526
3673,0.001553
3672.5,0.002392
3672,0.00258
3671.5,0.00237
3671,0.002004
3670.5,0.002134
3670,0.002355
3669.5,0.001254
3669,0.001227
3668.5,0.001919
3668,0.002115
3667.5,0.002342
3667,0.003115
3666.5,0.002977
3666,0.002085
3665.5,0.001347
3665,0.001113
3664.5,0.001254
3664,0.002044
3663.5,0.002558
3663,0.001962
3662.5,0.001689
3662,0.001949
3661.5,0.002055
3661,0.002154
3660.5,0.001952
3660,0.00136
3659.5,0.001904
3659,0.002858
3658.5,0.00302
3658,0.002773
3657.5,0.002288
3657,0.001997
3656.5,0.001901
3656,0.001894
3655.5,0.002295
3655,0.002798
3654.5,0.003162
3654,0.002144
3653.5,0.001771
3653,0.001914
3652.5,0.000983
3652,0.001058
3651.5,0.002054
3651,0.002612
3650.5,0.00303
3650,0.003292
3649.5,0.002012
3649,0.000673
3648.5,0.002132
3648,0.004166
3647.5,0.002973
3647,0.000983
3646.5,0.001866
3646,0.00394
3645.5,0.003576
3645,0.003755
3644.5,0.004472
3644,0.004365
3643.5,0.003899
3643,0.002575
3642.5,0.001713
3642,0.002307
3641.5,0.002872
3641,0.00259
3640.5,0.002517
3640,0.003209
3639.5,0.003696
3639,0.003017
3638.5,0.00221
3638,0.002335
3637.5,0.00258
3637,0.001994
3636.5,0.002125
3636,0.002708
3635.5,0.002803
3635,0.002962
3634.5,0.002732
3634,0.002375
3633.5,0.002313
3633,0.002608
3632.5,0.003154
3632,0.003551
3631.5,0.003741
3631,0.003489
3630.5,0.003526
3630,0.004083
3629.5,0.003381
3629,0.002194
3628.5,0.002448
3628,0.002905
3627.5,0.003773
3627,0.003593
3626.5,0.00267
3626,0.002807
3625.5,0.003254
3625,0.004183
3624.5,0.004365
3624,0.003072
3623.5,0.002603
3623,0.00383
3622.5,0.004551
3622,0.004394
3621.5,0.004036
3621,0.004228
3620.5,0.004564
3620,0.003466
3619.5,0.002407
3619,0.00311
3618.5,0.003658
3618,0.003598
3617.5,0.003608
3617,0.004925
3616.5,0.006346
3616,0.005753
3615.5,0.004663
3615,0.004345
3614.5,0.0038
3614,0.003798
3613.5,0.00461
3613,0.004752
3612.5,0.004392
3612,0.005441
3611.5,0.006062
3611,0.004631
3610.5,0.003589
3610,0.004414
3609.5,0.004615
3609,0.004143
3608.5,0.004143
3608,0.004754
3607.5,0.005069
3607,0.004164
3606.5,0.003767
3606,0.004069
3605.5,0.004039
3605,0.004071
3604.5,0.004518
3604,0.004826
3603.5,0.004864
3603,0.004693
3602.5,0.004831
3602,0.005496
3601.5,0.005775
3601,0.005282
3600.5,0.004143
3600,0.004504
3599.5,0.005619
3599,0.005741
3598.5,0.005629
3598,0.004844
3597.5,0.004499
3597,0.005379
3596.5,0.005901
3596,0.00531
3595.5,0.004791
3595,0.00522
3594.5,0.005684
3594,0.0055
3593.5,0.005181
3593,0.004946
3592.5,0.004553
3592,0.005047
3591.5,0.005339
3591,0.005587
3590.5,0.005646
3590,0.005015
3589.5,0.004377
3589,0.005268
3588.5,0.005785
3588,0.00596
3587.5,0.006361
3587,0.005802
3586.5,0.006207
3586,0.006477
3585.5,0.005847
3585,0.006459
3584.5,0.006625
3584,0.005852
3583.5,0.005454
3583,0.005382
3582.5,0.005699
3582,0.005515
3581.5,0.005637
3581,0.005892
3580.5,0.005716
3580,0.005958
3579.5,0.006531
3579,0.006568
3578.5,0.006528
3578,0.006538
3577.5,0.006329
3577,0.006244
3576.5,0.006202
3576,0.005985
3575.5,0.005995
3575,0.00551
3574.5,0.005171
3574,0.005901
3573.5,0.00676
3573,0.007445
3572.5,0.007472
3572,0.006415
3571.5,0.00525
3571,0.005683
3570.5,0.00726
3570,0.00746
3569.5,0.006938
3569,0.006112
3568.5,0.0062
3568,0.007745
3567.5,0.008069
3567,0.007757
3566.5,0.007075
3566,0.006471
3565.5,0.0081
3565,0.008802
3564.5,0.007784
3564,0.007268
3563.5,0.007342
3563,0.007879
3562.5,0.008307
3562,0.008071
3561.5,0.007767
3561,0.007933
3560.5,0.007983
3560,0.007351
3559.5,0.00725
3559,0.007508
3558.5,0.008262
3558,0.008877
3557.5,0.008218
3557,0.007393
3556.5,0.007381
3556,0.00797
3555.5,0.007804
3555,0.007144
3554.5,0.007568
3554,0.008122
3553.5,0.0081
3553,0.008042
3552.5,0.008274
3552,0.009017
3551.5,0.009149
3551,0.008086
3550.5,0.007364
3550,0.007346
3549.5,0.007445
3549,0.007592
3548.5,0.007895
3548,0.00849
3547.5,0.008594
3547,0.009249
3546.5,0.01035
3546,0.010079
3545.5,0.008586
3545,0.007895
3544.5,0.008458
3544,0.008659
3543.5,0.00862
3543,0.009557
3542.5,0.010157
3542,0.009022
3541.5,0.007836
3541,0.007307
3540.5,0.008235
3540,0.009552
3539.5,0.009979
3539,0.010099
3538.5,0.009772
3538,0.008953
3537.5,0.009027
3537,0.009737
3536.5,0.00983
3536,0.009626
3535.5,0.009058
3535,0.00877
3534.5,0.009674
3534,0.010676
3533.5,0.010422
3533,0.008927
3532.5,0.008216
3532,0.00912
3531.5,0.010025
3531,0.01043
3530.5,0.011052
3530,0.010826
3529.5,0.010257
3529,0.01006
3528.5,0.009513
3528,0.009415
3527.5,0.009589
3527,0.009698
3526.5,0.010456
3526,0.010826
3525.5,0.010143
3525,0.009479
3524.5,0.010201
3524,0.011126
3523.5,0.010625
3523,0.010201
3522.5,0.01032
3522,0.010889
3521.5,0.011334
3521,0.010649
3520.5,0.010389
3520,0.011171
3519.5,0.011113
3519,0.010673
3518.5,0.010349
3518,0.009879
3517.5,0.010193
3517,0.011084
3516.5,0.011427
3516,0.011096
3515.5,0.010491
3515,0.010435
3514.5,0.011038
3514,0.011492
3513.5,0.010889
3513,0.010753
3512.5,0.01137
3512,0.011546
3511.5,0.011894
3511,0.011422
3510.5,0.010933
3510,0.010958
3509.5,0.011608
3509,0.012268
3508.5,0.012086
3508,0.011894
3507.5,0.011817
3507,0.011933
3506.5,0.01121
3506,0.011172
3505.5,0.011979
3505,0.012066
3504.5,0.011756
3504,0.012118
3503.5,0.012248
3503,0.012282
3502.5,0.013232
3502,0.013466
3501.5,0.012129
3501,0.011555
3500.5,0.011822
3500,0.011764
3499.5,0.011752
3499,0.012207
3498.5,0.013089
3498,0.01375
3497.5,0.012957
3497,0.012205
3496.5,0.01263
3496,0.012887
3495.5,0.01298
3495,0.012541
3494.5,0.012062
3494,0.012124
3493.5,0.012047
3493,0.012662
3492.5,0.012966
3492,0.013386
3491.5,0.013829
3491,0.012732
3490.5,0.012367
3490,0.013113
3489.5,0.013111
3489,0.013613
3488.5,0.013639
3488,0.012768
3487.5,0.012746
3487,0.012981
3486.5,0.01292
3486,0.013354
3485.5,0.013661
3485,0.013453
3484.5,0.013292
3484,0.013169
3483.5,0.013316
3483,0.013501
3482.5,0.014296
3482,0.015124
3481.5,0.014262
3481,0.013545
3480.5,0.013632
3480,0.013525
3479.5,0.014121
3479,0.013625
3478.5,0.012841
3478,0.013301
3477.5,0.013868
3477,0.014032
3476.5,0.013692
3476,0.013933
3475.5,0.013465
3475,0.012952
3474.5,0.014174
3474,0.014988
3473.5,0.014181
3473,0.013822
3472.5,0.01457
3472,0.014087
3471.5,0.013285
3471,0.01349
3470.5,0.014103
3470,0.014808
3469.5,0.014741
3469,0.013661
3468.5,0.012816
3468,0.013733
3467.5,0.014459
3467,0.01443
3466.5,0.014786
3466,0.014469
3465.5,0.014399
3465,0.013928
3464.5,0.014687
3464,0.015491
3463.5,0.015225
3463,0.014795
3462.5,0.014157
3462,0.014844
3461.5,0.015558
3461,0.014952
3460.5,0.014471
3460,0.014116
3459.5,0.013661
3459,0.014301
3458.5,0.015184
3458,0.015156
3457.5,0.014428
3457,0.014611
3456.5,0.014741
3456,0.014212
3455.5,0.014673
3455,0.014969
3454.5,0.014683
3454,0.014424
3453.5,0.015218
3453,0.016264
3452.5,0.015778
3452,0.014594
3451.5,0.014563
3451,0.014724
3450.5,0.014709
3450,0.014248
3449.5,0.013562
3449,0.014133
3448.5,0.015064
3448,0.015484
3447.5,0.015625
3447,0.015558
3446.5,0.014896
3446,0.014082
3445.5,0.014118
3445,0.014873
3444.5,0.015328
3444,0.015302
3443.5,0.01547
3443,0.01504
3442.5,0.014455
3442,0.014897
3441.5,0.015762
3441,0.016204
3440.5,0.01585
3440,0.014954
3439.5,0.015077
3439,0.015699
3438.5,0.01581
3438,0.015383
3437.5,0.015548
3437,0.015376
3436.5,0.015318
3436,0.015795
3435.5,0.01617
3435,0.016132
3434.5,0.015884
3434,0.015816
3433.5,0.015568
3433,0.015421
3432.5,0.016182
3432,0.016922
3431.5,0.016514
3431,0.015986
3430.5,0.016541
3430,0.017239
3429.5,0.016681
3429,0.015673
3428.5,0.016096
3428,0.016454
3427.5,0.016841
3427,0.017641
3426.5,0.017465
3426,0.017017
3425.5,0.016784
3425,0.01635
3424.5,0.016629
3424,0.017129
3423.5,0.017103
3423,0.016782
3422.5,0.016855
3422,0.017222
3421.5,0.017308
3421,0.017175
3420.5,0.0167
3420,0.017139
3419.5,0.017351
3419,0.0166
3418.5,0.016908
3418,0.017708
3417.5,0.017308
3417,0.016774
3416.5,0.016906
3416,0.017377
3415.5,0.017627
3415,0.017529
3414.5,0.017813
3414,0.017779
3413.5,0.017258
3413,0.017222
3412.5,0.017566
3412,0.018188
3411.5,0.018195
3411,0.01717
3410.5,0.017018
3410,0.017919
3409.5,0.018428
3409,0.01811
3408.5,0.018079
3408,0.0181
3407.5,0.017415
3407,0.017085
3406.5,0.017535
3406,0.017839
3405.5,0.017805
3405,0.017494
3404.5,0.017798
3404,0.018807
3403.5,0.018618
3403,0.017972
3402.5,0.018456
3402,0.018406
3401.5,0.018126
3401,0.018975
3400.5,0.019822
3400,0.019584
3399.5,0.018523
3399,0.018302
3398.5,0.018689
3398,0.018656
3397.5,0.018207
3397,0.018024
3396.5,0.018413
3396,0.018361
3395.5,0.017863
3395,0.017672
3394.5,0.018081
3394,0.01814
3393.5,0.018133
3393,0.019002
3392.5,0.019635
3392,0.019385
3391.5,0.019051
3391,0.019108
3390.5,0.01903
3390,0.018918
3389.5,0.019467
3389,0.019931
3388.5,0.020004
3388,0.019583
3387.5,0.019259
3387,0.019619
3386.5,0.019832
3386,0.019395
3385.5,0.01925
3385,0.019279
3384.5,0.019898
3384,0.020223
3383.5,0.019907
3383,0.019415
3382.5,0.019035
3382,0.019117
3381.5,0.019406
3381,0.019992
3380.5,0.02016
3380,0.019321
3379.5,0.019153
3379,0.01957
3378.5,0.019824
3378,0.019631
3377.5,0.019314
3377,0.019942
3376.5,0.020421
3376,0.019957
3375.5,0.020469
3375,0.021097
3374.5,0.02061
3374,0.019893
3373.5,0.019676
3373,0.019692
3372.5,0.019961
3372,0.020256
3371.5,0.019938
3371,0.020054
3370.5,0.020219
3370,0.020257
3369.5,0.020582
3369,0.020469
3368.5,0.019883
3368,0.019732
3367.5,0.019688
3367,0.019772
3366.5,0.020825
3366,0.021222
3365.5,0.020738
3365,0.021269
3364.5,0.021904
3364,0.021984
3363.5,0.021105
3363,0.0202
3362.5,0.021185
3362,0.021883
3361.5,0.020973
3361,0.020825
3360.5,0.021646
3360,0.021599
3359.5,0.021457
3359,0.021831
3358.5,0.022127
3358,0.022466
3357.5,0.022457
3357,0.022396
3356.5,0.022979
3356,0.02318
3355.5,0.022691
3355,0.02195
3354.5,0.02118
3354,0.021368
3353.5,0.022272
3353,0.022291
3352.5,0.021777
3352,0.022556
3351.5,0.023353
3351,0.022441
3350.5,0.021927
3350,0.021845
3349.5,0.021943
3349,0.02184
3348.5,0.021925
3348,0.022638
3347.5,0.022593
3347,0.021565
3346.5,0.021622
3346,0.021943
3345.5,0.022096
3345,0.022549
3344.5,0.022631
3344,0.022441
3343.5,0.022408
3343,0.022766
3342.5,0.023342
3342,0.023491
3341.5,0.022998
3341,0.023267
3340.5,0.023526
3340,0.023225
3339.5,0.022705
3339,0.022759
3338.5,0.023313
3338,0.023348
3337.5,0.023608
3337,0.02303
3336.5,0.022569
3336,0.02314
3335.5,0.023573
3335,0.023577
3334.5,0.023348
3334,0.023456
3333.5,0.023843
3333,0.024261
3332.5,0.024151
3332,0.024046
3331.5,0.024102
3331,0.024037
3330.5,0.024019
3330,0.02379
3329.5,0.024051
3329,0.025015
3328.5,0.025048
3328,0.024435
3327.5,0.024142
3327,0.023893
3326.5,0.023797
3326,0.024158
3325.5,0.025057
3325,0.025384
3324.5,0.024826
3324,0.024731
3323.5,0.025052
3323,0.025168
3322.5,0.024826
3322,0.024805
3321.5,0.025408
3321,0.025675
3320.5,0.025654
3320,0.02564
3319.5,0.025036
3319,0.02511
3318.5,0.025178
3318,0.025542
3317.5,0.025767
3317,0.025159
3316.5,0.025259
3316,0.026228
3315.5,0.026576
3315,0.026511
3314.5,0.02627
3314,0.026187
3313.5,0.026559
3313,0.026527
3312.5,0.026536
3312,0.026786
3311.5,0.026622
3311,0.026025
3310.5,0.025846
3310,0.026215
3309.5,0.026451
3309,0.026168
3308.5,0.025997
3308,0.026305
3307.5,0.026377
3307,0.026219
3306.5,0.025607
3306,0.025718
3305.5,0.026552
3305,0.027216
3304.5,0.027172
3304,0.026597
3303.5,0.026068
3303,0.025686
3302.5,0.026131
3302,0.027036
3301.5,0.026772
3301,0.026189
3300.5,0.026797
3300,0.027354
3299.5,0.02726
3299,0.027774
3298.5,0.028117
3298,0.027156
3297.5,0.026367
3297,0.026553
3296.5,0.026888
3296,0.027428
3295.5,0.028104
3295,0.027912
3294.5,0.027221
3294,0.027852
3293.5,0.028442
3293,0.02741
3292.5,0.027313
3292,0.02771
3291.5,0.027433
3291,0.027601
3290.5,0.027806
3290,0.027262
3289.5,0.02731
3289,0.027601
3288.5,0.027682
3288,0.027707
3287.5,0.027995
3287,0.027657
3286.5,0.026923
3286,0.027597
3285.5,0.028415
3285,0.02786
3284.5,0.027017
3284,0.026722
3283.5,0.027447
3283,0.028092
3282.5,0.028064
3282,0.028569
3281.5,0.028943
3281,0.028966
3280.5,0.028373
3280,0.028102
3279.5,0.028141
3279,0.027853
3278.5,0.027956
3278,0.028042
3277.5,0.02789
3277,0.027673
3276.5,0.027634
3276,0.027926
3275.5,0.027827
3275,0.027822
3274.5,0.028065
3274,0.027474
3273.5,0.026904
3273,0.027502
3272.5,0.027859
3272,0.026957
3271.5,0.026404
3271,0.026539
3270.5,0.026722
3270,0.026994
3269.5,0.026779
3269,0.026259
3268.5,0.026449
3268,0.026467
3267.5,0.02689
3267,0.027119
3266.5,0.026555
3266,0.026881
3265.5,0.027403
3265,0.027278
3264.5,0.026927
3264,0.027123
3263.5,0.027355
3263,0.027461
3262.5,0.027027
3262,0.025853
3261.5,0.025976
3261,0.026555
3260.5,0.026101
3260,0.025828
3259.5,0.026432
3259,0.0269
3258.5,0.027228
3258,0.027071
3257.5,0.026472
3257,0.026268
3256.5,0.026349
3256,0.026997
3255.5,0.02705
3255,0.025987
3254.5,0.025644
3254,0.025779
3253.5,0.025486
3253,0.025538
3252.5,0.026101
3252,0.025895
3251.5,0.025603
3251,0.025477
3250.5,0.024778
3250,0.02481
3249.5,0.02518
3249,0.024741
3248.5,0.024258
3248,0.02457
3247.5,0.024589
3247,0.0242
3246.5,0.024513
3246,0.024445
3245.5,0.024347
3245,0.024878
3244.5,0.025189
3244,0.025192
3243.5,0.025015
3243,0.025022
3242.5,0.025185
3242,0.024443
3241.5,0.023208
3241,0.023543
3240.5,0.024307
3240,0.024328
3239.5,0.024056
3239,0.023981
3238.5,0.024242
3238,0.023979
3237.5,0.023748
3237,0.023636
3236.5,0.024151
3236,0.024379
3235.5,0.023643
3235,0.023542
3234.5,0.023764
3234,0.023349
3233.5,0.022645
3233,0.02272
3232.5,0.023407
3232,0.023683
3231.5,0.023907
3231,0.023507
3230.5,0.023231
3230,0.023414
3229.5,0.023108
3229,0.022722
3228.5,0.023014
3228,0.023327
3227.5,0.023425
3227,0.023655
3226.5,0.023171
3226,0.022956
3225.5,0.02289
3225,0.022384
3224.5,0.022178
3224,0.022584
3223.5,0.023949
3223,0.024049
3222.5,0.022932
3222,0.022799
3221.5,0.023339
3221,0.023668
3220.5,0.023554
3220,0.022871
3219.5,0.022843
3219,0.022844
3218.5,0.022686
3218,0.022731
3217.5,0.022693
3217,0.02283
3216.5,0.022855
3216,0.022396
3215.5,0.021977
3215,0.022105
3214.5,0.02244
3214,0.022595
3213.5,0.022387
3213,0.022056
3212.5,0.021941
3212,0.021398
3211.5,0.021314
3211,0.021862
3210.5,0.021962
3210,0.021734
3209.5,0.021923
3209,0.022086
3208.5,0.021699
3208,0.021734
3207.5,0.022002
3207,0.022159
3206.5,0.022234
3206,0.02244
3205.5,0.02264
3205,0.022337
3204.5,0.021798
3204,0.021664
3203.5,0.021317
3203,0.021572
3202.5,0.02211
3202,0.021634
3201.5,0.021545
3201,0.021739
3200.5,0.021704
3200,0.021403
3199.5,0.021539
3199,0.021756
3198.5,0.021335
3198,0.020957
3197.5,0.021183
3197,0.0215
3196.5,0.02117
3196,0.020537
3195.5,0.020667
3195,0.02111
3194.5,0.021514
3194,0.021714
3193.5,0.021418
3193,0.021072
3192.5,0.021128
3192,0.021203
3191.5,0.021034
3191,0.020679
3190.5,0.020848
3190,0.021058
3189.5,0.020763
3189,0.020363
3188.5,0.020603
3188,0.021307
3187.5,0.02114
3187,0.019971
3186.5,0.019947
3186,0.021375
3185.5,0.021269
3185,0.020393
3184.5,0.020417
3184,0.020686
3183.5,0.020525
3183,0.020507
3182.5,0.020535
3182,0.020575
3181.5,0.020254
3181,0.020091
3180.5,0.019981
3180,0.020131
3179.5,0.019969
3179,0.0202
3178.5,0.020737
3178,0.020726
3177.5,0.02077
3177,0.020506
3176.5,0.019829
3176,0.019612
3175.5,0.019843
3175,0.020113
3174.5,0.020169
3174,0.019824
3173.5,0.02037
3173,0.020702
3172.5,0.020207
3172,0.020001
3171.5,0.019739
3171,0.019326
3170.5,0.018848
3170,0.018784
3169.5,0.019132
3169,0.019694
3168.5,0.019666
3168,0.019288
3167.5,0.018805
3167,0.019115
3166.5,0.019787
3166,0.019655
3165.5,0.019525
3165,0.019415
3164.5,0.019002
3164,0.01884
3163.5,0.019084
3163,0.019094
3162.5,0.018914
3162,0.018864
3161.5,0.019001
3161,0.018923
3160.5,0.018854
3160,0.018715
3159.5,0.018809
3159,0.018624
3158.5,0.018551
3158,0.018966
3157.5,0.018845
3157,0.018074
3156.5,0.01786
3156,0.018007
3155.5,0.017905
3155,0.018357
3154.5,0.018646
3154,0.01861
3153.5,0.018288
3153,0.018095
3152.5,0.017915
3152,0.017346
3151.5,0.017022
3151,0.01731
3150.5,0.017385
3150,0.017332
3149.5,0.017591
3149,0.017639
3148.5,0.017986
3148,0.018361
3147.5,0.018286
3147,0.018096
3146.5,0.017729
3146,0.017211
3145.5,0.017111
3145,0.017742
3144.5,0.017554
3144,0.016889
3143.5,0.016756
3143,0.017322
3142.5,0.017565
3142,0.017794
3141.5,0.017354
3141,0.016548
3140.5,0.016486
3140,0.016655
3139.5,0.017001
3139,0.017641
3138.5,0.017667
3138,0.017392
3137.5,0.017135
3137,0.017218
3136.5,0.017372
3136,0.017313
3135.5,0.016917
3135,0.016748
3134.5,0.01698
3134,0.017472
3133.5,0.017587
3133,0.017487
3132.5,0.016999
3132,0.016839
3131.5,0.017091
3131,0.016304
3130.5,0.015975
3130,0.016001
3129.5,0.016242
3129,0.016665
3128.5,0.017187
3128,0.017429
3127.5,0.017222
3127,0.016686
3126.5,0.016502
3126,0.01662
3125.5,0.017042
3125,0.017096
3124.5,0.016579
3124,0.016032
3123.5,0.016209
3123,0.016424
3122.5,0.016218
3122,0.016304
3121.5,0.016577
3121,0.016073
3120.5,0.015998
3120,0.016474
3119.5,0.016251
3119,0.016048
3118.5,0.016251
3118,0.016273
3117.5,0.01624
3117,0.01574
3116.5,0.015275
3116,0.015132
3115.5,0.014683
3115,0.014759
3114.5,0.015613
3114,0.016177
3113.5,0.015764
3113,0.015412
3112.5,0.015864
3112,0.015914
3111.5,0.015558
3111,0.015371
3110.5,0.015652
3110,0.015939
3109.5,0.016103
3109,0.015774
3108.5,0.014901
3108,0.014683
3107.5,0.015124
3107,0.015594
3106.5,0.015534
3106,0.01535
3105.5,0.015474
3105,0.015895
3104.5,0.016247
3104,0.015479
3103.5,0.015026
3103,0.015501
3102.5,0.015606
3102,0.015434
3101.5,0.014927
3101,0.014796
3100.5,0.015606
3100,0.015872
3099.5,0.015081
3099,0.014911
3098.5,0.015306
3098,0.015364
3097.5,0.015119
3097,0.014471
3096.5,0.014462
3096,0.014906
3095.5,0.015361
3095,0.015529
3094.5,0.015158
3094,0.015203
3093.5,0.015697
3093,0.016211
3092.5,0.015962
3092,0.015004
3091.5,0.015258
3091,0.016414
3090.5,0.015855
3090,0.014865
3089.5,0.015136
3089,0.015227
3088.5,0.014678
3088,0.014577
3087.5,0.014627
3087,0.015011
3086.5,0.015496
3086,0.015671
3085.5,0.015441
3085,0.014884
3084.5,0.014695
3084,0.014685
3083.5,0.015004
3083,0.015701
3082.5,0.015838
3082,0.015493
3081.5,0.015246
3081,0.015124
3080.5,0.01562
3080,0.015718
3079.5,0.014661
3079,0.014079
3078.5,0.01498
3078,0.015546
3077.5,0.014889
3077,0.014618
3076.5,0.015235
3076,0.015242
3075.5,0.015088
3075,0.01521
3074.5,0.015524
3074,0.01523
3073.5,0.015228
3073,0.015438
3072.5,0.015211
3072,0.015285
3071.5,0.015664
3071,0.015597
3070.5,0.015445
3070,0.015515
3069.5,0.015234
3069,0.015103
3068.5,0.015324
3068,0.015187
3067.5,0.01534
3067,0.015493
3066.5,0.015014
3066,0.014764
3065.5,0.015254
3065,0.015639
3064.5,0.015757
3064,0.015934
3063.5,0.016285
3063,0.016101
3062.5,0.015419
3062,0.015184
3061.5,0.015071
3061,0.014997
3060.5,0.015165
3060,0.015266
3059.5,0.015306
3059,0.015457
3058.5,0.016041
3058,0.015565
3057.5,0.014592
3057,0.014743
3056.5,0.015072
3056,0.014831
3055.5,0.014921
3055,0.015476
3054.5,0.015395
3054,0.014555
3053.5,0.014161
3053,0.014544
3052.5,0.015136
3052,0.015072
3051.5,0.0147
3051,0.0147
3050.5,0.014796
3050,0.01482
3049.5,0.014885
3049,0.014263
3048.5,0.013448
3048,0.013709
3047.5,0.014221
3047,0.014714
3046.5,0.015074
3046,0.014975
3045.5,0.014855
3045,0.014789
3044.5,0.014169
3044,0.013824
3043.5,0.013957
3043,0.014267
3042.5,0.014325
3042,0.014315
3041.5,0.014294
3041,0.013706
3040.5,0.013589
3040,0.014354
3039.5,0.013942
3039,0.0136
3038.5,0.014416
3038,0.014567
3037.5,0.013988
3037,0.013299
3036.5,0.013217
3036,0.013752
3035.5,0.014101
3035,0.013928
3034.5,0.013849
3034,0.013755
3033.5,0.013945
3033,0.013728
3032.5,0.013547
3032,0.013475
3031.5,0.013347
3031,0.013236
3030.5,0.013396
3030,0.013865
3029.5,0.014176
3029,0.013916
3028.5,0.013779
3028,0.01399
3027.5,0.014063
3027,0.014228
3026.5,0.014426
3026,0.014462
3025.5,0.014447
3025,0.014055
3024.5,0.013446
3024,0.013656
3023.5,0.014894
3023,0.015501
3022.5,0.014548
3022,0.014411
3021.5,0.015069
3021,0.015577
3020.5,0.015647
3020,0.015785
3019.5,0.015994
3019,0.01601
3018.5,0.016681
3018,0.017755
3017.5,0.018008
3017,0.017787
3016.5,0.018045
3016,0.018822
3015.5,0.019092
3015,0.018582
3014.5,0.018987
3014,0.020113
3013.5,0.020513
3013,0.020349
3012.5,0.021241
3012,0.021976
3011.5,0.021662
3011,0.022565
3010.5,0.023353
3010,0.022803
3009.5,0.02271
3009,0.023563
3008.5,0.023851
3008,0.023435
3007.5,0.024063
3007,0.023801
3006.5,0.023405
3006,0.024058
3005.5,0.024315
3005,0.024082
3004.5,0.024098
3004,0.024454
3003.5,0.024498
3003,0.024084
3002.5,0.023313
3002,0.022796
3001.5,0.022274
3001,0.022065
3000.5,0.022202
3000,0.022059
2999.5,0.021911
2999,0.021109
2998.5,0.020021
2998,0.019914
2997.5,0.019995
2997,0.020297
2996.5,0.020464
2996,0.019968
2995.5,0.018809
2995,0.018483
2994.5,0.019195
2994,0.018829
2993.5,0.018935
2993,0.018918
2992.5,0.018494
2992,0.01828
2991.5,0.017829
2991,0.017831
2990.5,0.01781
2990,0.017663
2989.5,0.018069
2989,0.018193
2988.5,0.017656
2988,0.017513
2987.5,0.018026
2987,0.018207
2986.5,0.018193
2986,0.018452
2985.5,0.018712
2985,0.019092
2984.5,0.019115
2984,0.018686
2983.5,0.01898
2983,0.019726
2982.5,0.019747
2982,0.019364
2981.5,0.019936
2981,0.020605
2980.5,0.020806
2980,0.021392
2979.5,0.021998
2979,0.02199
2978.5,0.021768
2978,0.022284
2977.5,0.023131
2977,0.023447
2976.5,0.023923
2976,0.024699
2975.5,0.024696
2975,0.024445
2974.5,0.025094
2974,0.025995
2973.5,0.026112
2973,0.026502
2972.5,0.02705
2972,0.027433
2971.5,0.027733
2971,0.02747
2970.5,0.028092
2970,0.028721
2969.5,0.028748
2969,0.029753
2968.5,0.03076
2968,0.031634
2967.5,0.03219
2967,0.033328
2966.5,0.035027
2966,0.036609
2965.5,0.03748
2965,0.038069
2964.5,0.03919
2964,0.040802
2963.5,0.042397
2963,0.043366
2962.5,0.043723
2962,0.044664
2961.5,0.045953
2961,0.046499
2960.5,0.047001
2960,0.048269
2959.5,0.049626
2959,0.050524
2958.5,0.050803
2958,0.051394
2957.5,0.053007
2957,0.05354
2956.5,0.053108
2956,0.053207
2955.5,0.053619
2955,0.053632
2954.5,0.053728
2954,0.054553
2953.5,0.054864
2953,0.054347
2952.5,0.05492
2952,0.05601
2951.5,0.055874
2951,0.054986
2950.5,0.054354
2950,0.054435
2949.5,0.054657
2949,0.054988
2948.5,0.055084
2948,0.055023
2947.5,0.055644
2947,0.056166
2946.5,0.055946
2946,0.0562
2945.5,0.057051
2945,0.057498
2944.5,0.058342
2944,0.059364
2943.5,0.0599
2943,0.060603
2942.5,0.061676
2942,0.062804
2941.5,0.064104
2941,0.065429
2940.5,0.066631
2940,0.067908
2939.5,0.06918
2939,0.070509
2938.5,0.072613
2938,0.074794
2937.5,0.076285
2937,0.078395
2936.5,0.080815
2936,0.082685
2935.5,0.084581
2935,0.086681
2934.5,0.089162
2934,0.091841
2933.5,0.094201
2933,0.096316
2932.5,0.098389
2932,0.10018
2931.5,0.102645
2931,0.105385
2930.5,0.107413
2930,0.109868
2929.5,0.112099
2929,0.11373
2928.5,0.115642
2928,0.118083
2927.5,0.120584
2927,0.121756
2926.5,0.123234
2926,0.125338
2925.5,0.127086
2925,0.128322
2924.5,0.129191
2924,0.130295
2923.5,0.131668
2923,0.132078
2922.5,0.13215
2922,0.132357
2921.5,0.132654
2921,0.132701
2920.5,0.132278
2920,0.131766
2919.5,0.130659
2919,0.128705
2918.5,0.127359
2918,0.126272
2917.5,0.124188
2917,0.121942
2916.5,0.12035
2916,0.118705
2915.5,0.116367
2915,0.113896
2914.5,0.111326
2914,0.109348
2913.5,0.107108
2913,0.104708
2912.5,0.102592
2912,0.099781
2911.5,0.097803
2911,0.095998
2910.5,0.093541
2910,0.091741
2909.5,0.090292
2909,0.088554
2908.5,0.086786
2908,0.085136
2907.5,0.082963
2907,0.080847
2906.5,0.079792
2906,0.078645
2905.5,0.077026
2905,0.075639
2904.5,0.074318
2904,0.072723
2903.5,0.071262
2903,0.070106
2902.5,0.069184
2902,0.068384
2901.5,0.067548
2901,0.066542
2900.5,0.065576
2900,0.064133
2899.5,0.063038
2899,0.062594
2898.5,0.062418
2898,0.061312
2897.5,0.059963
2897,0.05925
2896.5,0.05831
2896,0.056834
2895.5,0.055582
2895,0.055191
2894.5,0.055225
2894,0.054924
2893.5,0.053955
2893,0.052462
2892.5,0.051417
2892,0.051252
2891.5,0.050831
2891,0.049713
2890.5,0.048893
2890,0.048228
2889.5,0.04735
2889,0.046484
2888.5,0.046324
2888,0.045997
2887.5,0.045339
2887,0.044622
2886.5,0.043962
2886,0.043174
2885.5,0.042962
2885,0.04279
2884.5,0.041543
2884,0.040541
2883.5,0.040825
2883,0.040989
2882.5,0.040672
2882,0.040145
2881.5,0.04
2881,0.040107
2880.5,0.039441
2880,0.038893
2879.5,0.039335
2879,0.039815
2878.5,0.040045
2878,0.039876
2877.5,0.04002
2877,0.04078
2876.5,0.040523
2876,0.040178
2875.5,0.040876
2875,0.041348
2874.5,0.04214
2874,0.043328
2873.5,0.043505
2873,0.043606
2872.5,0.04433
2872,0.044751
2871.5,0.045282
2871,0.045734
2870.5,0.046324
2870,0.046903
2869.5,0.04701
2869,0.046798
2868.5,0.046978
2868,0.046844
2867.5,0.046702
2867,0.047706
2866.5,0.04831
2866,0.048363
2865.5,0.049017
2865,0.049548
2864.5,0.049953
2864,0.050668
2863.5,0.052105
2863,0.053782
2862.5,0.055155
2862,0.05661
2861.5,0.057982
2861,0.059539
2860.5,0.061904
2860,0.064204
2859.5,0.065761
2859,0.067524
2858.5,0.070205
2858,0.072226
2857.5,0.074017
2857,0.077042
2856.5,0.080143
2856,0.082596
2855.5,0.084808
2855,0.087005
2854.5,0.088877
2854,0.089836
2853.5,0.090868
2853,0.092017
2852.5,0.092419
2852,0.09238
2851.5,0.092009
2851,0.091729
2850.5,0.091084
2850,0.088975
2849.5,0.086594
2849,0.084989
2848.5,0.082803
2848,0.080404
2847.5,0.078198
2847,0.075698
2846.5,0.072449
2846,0.06898
2845.5,0.066334
2845,0.063534
2844.5,0.06086
2844,0.05845
2843.5,0.055417
2843,0.052229
2842.5,0.04989
2842,0.048111
2841.5,0.046239
2841,0.044411
2840.5,0.043055
2840,0.041609
2839.5,0.039497
2839,0.037563
2838.5,0.035849
2838,0.034355
2837.5,0.033643
2837,0.03298
2836.5,0.031841
2836,0.030776
2835.5,0.029874
2835,0.029269
2834.5,0.029019
2834,0.028373
2833.5,0.027832
2833,0.027467
2832.5,0.026486
2832,0.025603
2831.5,0.02531
2831,0.024762
2830.5,0.024135
2830,0.023974
2829.5,0.024153
2829,0.023818
2828.5,0.02326
2828,0.022956
2827.5,0.022274
2827,0.02141
2826.5,0.0213
2826,0.021079
2825.5,0.020361
2825,0.020032
2824.5,0.019836
2824,0.019574
2823.5,0.019681
2823,0.019562
2822.5,0.018909
2822,0.018324
2821.5,0.018411
2821,0.01849
2820.5,0.018535
2820,0.01829
2819.5,0.017484
2819,0.016743
2818.5,0.016538
2818,0.016636
2817.5,0.016118
2817,0.015903
2816.5,0.016632
2816,0.016538
2815.5,0.015838
2815,0.015776
2814.5,0.015618
2814,0.015095
2813.5,0.014993
2813,0.015216
2812.5,0.015445
2812,0.015378
2811.5,0.015105
2811,0.014894
2810.5,0.014848
2810,0.014935
2809.5,0.014411
2809,0.013831
2808.5,0.014038
2808,0.014428
2807.5,0.014495
2807,0.014003
2806.5,0.013314
2806,0.013092
2805.5,0.013525
2805,0.014132
2804.5,0.014236
2804,0.014014
2803.5,0.013255
2803,0.013323
2802.5,0.013422
2802,0.013608
2801.5,0.01326
2801,0.012493
2800.5,0.012642
2800,0.012754
2799.5,0.012686
2799,0.012944
2798.5,0.01286
2798,0.012493
2797.5,0.012395
2797,0.012072
2796.5,0.011865
2796,0.012313
2795.5,0.012468
2795,0.01219
2794.5,0.01218
2794,0.012483
2793.5,0.012669
2793,0.012603
2792.5,0.012101
2792,0.011478
2791.5,0.011422
2791,0.011628
2790.5,0.011763
2790,0.012008
2789.5,0.011817
2789,0.011666
2788.5,0.011545
2788,0.011509
2787.5,0.011383
2787,0.011281
2786.5,0.011507
2786,0.011145
2785.5,0.010586
2785,0.010749
2784.5,0.011242
2784,0.011781
2783.5,0.011638
2783,0.011058
2782.5,0.010972
2782,0.0113
2781.5,0.011655
2781,0.011642
2780.5,0.01099
2780,0.010308
2779.5,0.010186
2779,0.010866
2778.5,0.011422
2778,0.011123
2777.5,0.011244
2777,0.011033
2776.5,0.010513
2776,0.010235
2775.5,0.010193
2775,0.010656
2774.5,0.011302
2774,0.010999
2773.5,0.010303
2773,0.010089
2772.5,0.010196
2772,0.010362
2771.5,0.010159
2771,0.009865
2770.5,0.01003
2770,0.010272
2769.5,0.010518
2769,0.010461
2768.5,0.01015
2768,0.009977
2767.5,0.009955
2767,0.010272
2766.5,0.010449
2766,0.010042
2765.5,0.009689
2765,0.009515
2764.5,0.009938
2764,0.010406
2763.5,0.010327
2763,0.010052
2762.5,0.009672
2762,0.009484
2761.5,0.009633
2761,0.009625
2760.5,0.00972
2760,0.010013
2759.5,0.009782
2759,0.009477
2758.5,0.009643
2758,0.009559
2757.5,0.009515
2757,0.009852
2756.5,0.009862
2756,0.009581
2755.5,0.009765
2755,0.010242
2754.5,0.010462
2754,0.01053
2753.5,0.010026
2753,0.009044
2752.5,0.009064
2752,0.009515
2751.5,0.009444
2751,0.009413
2750.5,0.009654
2750,0.009781
2749.5,0.010199
2749,0.009981
2748.5,0.009158
2748,0.008684
2747.5,0.008726
2747,0.009173
2746.5,0.009703
2746,0.009559
2745.5,0.00941
2745,0.009408
2744.5,0.009532
2744,0.009748
2743.5,0.009647
2743,0.009552
2742.5,0.009222
2742,0.009313
2741.5,0.00954
2741,0.009296
2740.5,0.009198
2740,0.009525
2739.5,0.009428
2739,0.009535
2738.5,0.009793
2738,0.009474
2737.5,0.009044
2737,0.008502
2736.5,0.00863
2736,0.009257
2735.5,0.009137
2735,0.008924
2734.5,0.009393
2734,0.009747
2733.5,0.009357
2733,0.008948
2732.5,0.008824
2732,0.008628
2731.5,0.009048
2731,0.009843
2730.5,0.009698
2730,0.00908
2729.5,0.008708
2729,0.008973
2728.5,0.009281
2728,0.008684
2727.5,0.008671
2727,0.008892
2726.5,0.009188
2726,0.009149
2725.5,0.008943
2725,0.008814
2724.5,0.008801
2724,0.008914
2723.5,0.008917
2723,0.008407
2722.5,0.008064
2722,0.008159
2721.5,0.008103
2721,0.008731
2720.5,0.008906
2720,0.008667
2719.5,0.008758
2719,0.008911
2718.5,0.008809
2718,0.008476
2717.5,0.008686
2717,0.008995
2716.5,0.00911
2716,0.008753
2715.5,0.008167
2715,0.00827
2714.5,0.008608
2714,0.0084
2713.5,0.008309
2713,0.008949
2712.5,0.008973
2712,0.008638
2711.5,0.008608
2711,0.008904
2710.5,0.008735
2710,0.008074
2709.5,0.007968
2709,0.008393
2708.5,0.008341
2708,0.008689
2707.5,0.008824
2707,0.008725
2706.5,0.008593
2706,0.008387
2705.5,0.008216
2705,0.008032
2704.5,0.00825
2704,0.008471
2703.5,0.008002
2703,0.007572
2702.5,0.008117
2702,0.008782
2701.5,0.008326
2701,0.008066
2700.5,0.008076
2700,0.008245
2699.5,0.008157
2699,0.007836
2698.5,0.008056
2698,0.008366
2697.5,0.00842
2697,0.008451
2696.5,0.008454
2696,0.008674
2695.5,0.009
2695,0.008742
2694.5,0.008463
2694,0.008434
2693.5,0.008329
2693,0.008122
2692.5,0.008002
2692,0.008393
2691.5,0.008782
2691,0.008235
2690.5,0.007755
2690,0.007987
2689.5,0.008573
2689,0.008929
2688.5,0.008132
2688,0.007476
2687.5,0.007939
2687,0.008319
2686.5,0.007919
2686,0.007671
2685.5,0.007939
2685,0.00798
2684.5,0.007983
2684,0.008562
2683.5,0.008794
2683,0.008522
2682.5,0.008363
2682,0.008691
2681.5,0.008714
2681,0.008355
2680.5,0.008142
2680,0.007745
2679.5,0.007648
2679,0.008117
2678.5,0.008789
2678,0.008393
2677.5,0.007492
2677,0.007636
2676.5,0.008088
2676,0.008257
2675.5,0.008603
2675,0.008628
2674.5,0.007833
2674,0.007555
2673.5,0.00783
2673,0.007889
2672.5,0.007826
2672,0.007558
2671.5,0.007787
2671,0.008267
2670.5,0.008127
2670,0.008245
2669.5,0.008194
2669,0.008007
2668.5,0.007688
2668,0.007339
2667.5,0.007553
2667,0.008184
2666.5,0.008339
2666,0.008169
2665.5,0.008017
2665,0.007771
2664.5,0.007799
2664,0.007799
2663.5,0.00801
2663,0.007946
2662.5,0.007302
2662,0.007469
2661.5,0.007867
2661,0.008081
2660.5,0.007863
2660,0.007594
2659.5,0.007432
2659,0.007654
2658.5,0.008225
2658,0.008297
2657.5,0.008059
2657,0.00775
2656.5,0.007246
2656,0.007196
2655.5,0.007422
2655,0.007973
2654.5,0.008366
2654,0.008388
2653.5,0.008049
2653,0.007808
2652.5,0.007674
2652,0.007484
2651.5,0.007663
2651,0.007901
2650.5,0.007902
2650,0.008071
2649.5,0.008081
2649,0.00713
2648.5,0.006807
2648,0.007164
2647.5,0.007196
2647,0.007329
2646.5,0.007289
2646,0.006947
2645.5,0.006994
2645,0.007388
2644.5,0.007636
2644,0.007664
2643.5,0.007786
2643,0.007787
2642.5,0.007452
2642,0.007174
2641.5,0.007068
2641,0.00727
2640.5,0.007427
2640,0.006933
2639.5,0.006832
2639,0.006974
2638.5,0.007007
2638,0.007504
2637.5,0.007479
2637,0.006958
2636.5,0.007162
2636,0.007735
2635.5,0.007777
2635,0.007361
2634.5,0.0071
2634,0.006852
2633.5,0.006945
2633,0.006962
2632.5,0.00675
2632,0.006825
2631.5,0.007103
2631,0.007034
2630.5,0.007181
2630,0.007341
2629.5,0.00739
2629,0.006972
2628.5,0.006343
2628,0.006518
2627.5,0.007103
2627,0.007432
2626.5,0.006947
2626,0.006397
2625.5,0.006306
2625,0.006368
2624.5,0.006664
2624,0.007048
2623.5,0.007494
2623,0.007575
2622.5,0.006972
2622,0.006496
2621.5,0.006455
2621,0.006472
2620.5,0.006397
2620,0.006615
2619.5,0.006958
2619,0.007007
2618.5,0.007038
2618,0.007011
2617.5,0.006254
2617,0.006065
2616.5,0.006558
2616,0.00697
2615.5,0.006933
2615,0.006546
2614.5,0.006307
2614,0.00643
2613.5,0.006381
2613,0.006439
2612.5,0.006669
2612,0.006366
2611.5,0.006
2611,0.006233
2610.5,0.006383
2610,0.006124
2609.5,0.00623
2609,0.006799
2608.5,0.007118
2608,0.00662
2607.5,0.006094
2607,0.006494
2606.5,0.00674
2606,0.006753
2605.5,0.006602
2605,0.006153
2604.5,0.006312
2604,0.006629
2603.5,0.006207
2603,0.006445
2602.5,0.006831
2602,0.006496
2601.5,0.006592
2601,0.006809
2600.5,0.006418
2600,0.006129
2599.5,0.005829
2599,0.006074
2598.5,0.006824
2598,0.006807
2597.5,0.006395
2597,0.006395
2596.5,0.006338
2596,0.006044
2595.5,0.006373
2595,0.006753
2594.5,0.006484
2594,0.005961
2593.5,0.005938
2593,0.006072
2592.5,0.005918
2592,0.00605
2591.5,0.006188
2591,0.005971
2590.5,0.005738
2590,0.006223
2589.5,0.006731
2589,0.006918
2588.5,0.006834
2588,0.006081
2587.5,0.005931
2587,0.006326
2586.5,0.006102
2586,0.005859
2585.5,0.006099
2585,0.006114
2584.5,0.006054
2584,0.006049
2583.5,0.006156
2583,0.006121
2582.5,0.00604
2582,0.006163
2581.5,0.006153
2581,0.005981
2580.5,0.006161
2580,0.006344
2579.5,0.005899
2579,0.005698
2578.5,0.005955
2578,0.005745
2577.5,0.005918
2577,0.005881
2576.5,0.005699
2576,0.00596
2575.5,0.00644
2575,0.006979
2574.5,0.006619
2574,0.005881
2573.5,0.005805
2573,0.006329
2572.5,0.006407
2572,0.006299
2571.5,0.006402
2571,0.005933
2570.5,0.005547
2570,0.005889
2569.5,0.005929
2569,0.005538
2568.5,0.005946
2568,0.006365
2567.5,0.006388
2567,0.006329
2566.5,0.005743
2566,0.005706
2565.5,0.00638
2565,0.006393
2564.5,0.006097
2564,0.005944
2563.5,0.005882
2563,0.005808
2562.5,0.005753
2562,0.006022
2561.5,0.00638
2561,0.006217
2560.5,0.005886
2560,0.005714
2559.5,0.005459
2559,0.005844
2558.5,0.006397
2558,0.006139
2557.5,0.005719
2557,0.005777
2556.5,0.005678
2556,0.005466
2555.5,0.005476
2555,0.006084
2554.5,0.006334
2554,0.005928
2553.5,0.005723
2553,0.005562
2552.5,0.005391
2552,0.005246
2551.5,0.005545
2551,0.005814
2550.5,0.005454
2550,0.005448
2549.5,0.005753
2549,0.00558
2548.5,0.005681
2548,0.005672
2547.5,0.005689
2547,0.005414
2546.5,0.005028
2546,0.005478
2545.5,0.005639
2545,0.005111
2544.5,0.004682
2544,0.004866
2543.5,0.005308
2543,0.006013
2542.5,0.006434
2542,0.006065
2541.5,0.005184
2541,0.00494
2540.5,0.00556
2540,0.006059
2539.5,0.005696
2539,0.005466
2538.5,0.005501
2538,0.005758
2537.5,0.006002
2537,0.005725
2536.5,0.005619
2536,0.005708
2535.5,0.005563
2535,0.005674
2534.5,0.005607
2534,0.005307
2533.5,0.005468
2533,0.005377
2532.5,0.005409
2532,0.006148
2531.5,0.005892
2531,0.005501
2530.5,0.005755
2530,0.005761
2529.5,0.005426
2529,0.005201
2528.5,0.005629
2528,0.005953
2527.5,0.005891
2527,0.005693
2526.5,0.005409
2526,0.00535
2525.5,0.00562
2525,0.005223
2524.5,0.004935
2524,0.005201
2523.5,0.005273
2523,0.005215
2522.5,0.005587
2522,0.005448
2521.5,0.005261
2521,0.005241
2520.5,0.005052
2520,0.005057
2519.5,0.005308
2519,0.005307
2518.5,0.005431
2518,0.005518
2517.5,0.005305
2517,0.005052
2516.5,0.005139
2516,0.00537
2515.5,0.005469
2515,0.005718
2514.5,0.005359
2514,0.004785
2513.5,0.004842
2513,0.005246
2512.5,0.005116
2512,0.004491
2511.5,0.004978
2511,0.005847
2510.5,0.00596
2510,0.00584
2509.5,0.005584
2509,0.0053
2508.5,0.004883
2508,0.005069
2507.5,0.005211
2507,0.004685
2506.5,0.004863
2506,0.005641
2505.5,0.005688
2505,0.00555
2504.5,0.00553
2504,0.005355
2503.5,0.005367
2503,0.00556
2502.5,0.005426
2502,0.005137
2501.5,0.004923
2501,0.004898
2500.5,0.004841
2500,0.004846
2499.5,0.005594
2499,0.006128
2498.5,0.005872
2498,0.005587
2497.5,0.00505
2497,0.00467
2496.5,0.005005
2496,0.005463
2495.5,0.005706
2495,0.005422
2494.5,0.005223
2494,0.005104
2493.5,0.005253
2493,0.004749
2492.5,0.004563
2492,0.005072
2491.5,0.005139
2491,0.00508
2490.5,0.005404
2490,0.005298
2489.5,0.005137
2489,0.005374
2488.5,0.005015
2488,0.004682
2487.5,0.00473
2487,0.004883
2486.5,0.005179
2486,0.005228
2485.5,0.004975
2485,0.004764
2484.5,0.004767
2484,0.00508
2483.5,0.005283
2483,0.004802
2482.5,0.004868
2482,0.005033
2481.5,0.00504
2481,0.004864
2480.5,0.004663
2480,0.004749
2479.5,0.005124
2479,0.005474
2478.5,0.005402
2478,0.004873
2477.5,0.004623
2477,0.00466
2476.5,0.004556
2476,0.004834
2475.5,0.005216
2475,0.005231
2474.5,0.004826
2474,0.004554
2473.5,0.004988
2473,0.004976
2472.5,0.004695
2472,0.005101
2471.5,0.005364
2471,0.005236
2470.5,0.005265
2470,0.005318
2469.5,0.004791
2469,0.004479
2468.5,0.00471
2468,0.004789
2467.5,0.004456
2467,0.004685
2466.5,0.005044
2466,0.004926
2465.5,0.005092
2465,0.005161
2464.5,0.005287
2464,0.005127
2463.5,0.004623
2463,0.004568
2462.5,0.004496
2462,0.00433
2461.5,0.0043
2461,0.004494
2460.5,0.004804
2460,0.004834
2459.5,0.004579
2459,0.004626
2458.5,0.004727
2458,0.004382
2457.5,0.004318
2457,0.004799
2456.5,0.004658
2456,0.004349
2455.5,0.004615
2455,0.004648
2454.5,0.004779
2454,0.004941
2453.5,0.004734
2453,0.004519
2452.5,0.004608
2452,0.004744
2451.5,0.004796
2451,0.004764
2450.5,0.004831
2450,0.004596
2449.5,0.004548
2449,0.00494
2448.5,0.004906
2448,0.00466
2447.5,0.004668
2447,0.004315
2446.5,0.004071
2446,0.004703
2445.5,0.004869
2445,0.004123
2444.5,0.004108
2444,0.004571
2443.5,0.004543
2443,0.004134
2442.5,0.004487
2442,0.005381
2441.5,0.005382
2441,0.00464
2440.5,0.004139
2440,0.004156
2439.5,0.004253
2439,0.004332
2438.5,0.004472
2438,0.004777
2437.5,0.004861
2437,0.004988
2436.5,0.005215
2436,0.00498
2435.5,0.004854
2435,0.004717
2434.5,0.004173
2434,0.004118
2433.5,0.004667
2433,0.005008
2432.5,0.004911
2432,0.004692
2431.5,0.004693
2431,0.004717
2430.5,0.004367
2430,0.004044
2429.5,0.004549
2429,0.005206
2428.5,0.005194
2428,0.004812
2427.5,0.004466
2427,0.004469
2426.5,0.004298
2426,0.003979
2425.5,0.003934
2425,0.004176
2424.5,0.004595
2424,0.004576
2423.5,0.00425
2423,0.004431
2422.5,0.004156
2422,0.003549
2421.5,0.003755
2421,0.004093
2420.5,0.004315
2420,0.004737
2419.5,0.00462
2419,0.003899
2418.5,0.00371
2418,0.004444
2417.5,0.004342
2417,0.004057
2416.5,0.004675
2416,0.004698
2415.5,0.004302
2415,0.004088
2414.5,0.003957
2414,0.004067
2413.5,0.004253
2413,0.004605
2412.5,0.004407
2412,0.004089
2411.5,0.004596
2411,0.00465
2410.5,0.004357
2410,0.004399
2409.5,0.004456
2409,0.00431
2408.5,0.00397
2408,0.003787
2407.5,0.004052
2407,0.004452
2406.5,0.00433
2406,0.004253
2405.5,0.004422
2405,0.00471
2404.5,0.004963
2404,0.004419
2403.5,0.004173
2403,0.004392
2402.5,0.004477
2402,0.0044
2401.5,0.004098
2401,0.004067
2400.5,0.004168
2400,0.004089
2399.5,0.004335
2399,0.004631
2398.5,0.004181
2398,0.004175
2397.5,0.004482
2397,0.004354
2396.5,0.004186
2396,0.004484
2395.5,0.004926
2395,0.004703
2394.5,0.004429
2394,0.004497
2393.5,0.004417
2393,0.004307
2392.5,0.004471
2392,0.004519
2391.5,0.004285
2391,0.004143
2390.5,0.004144
2390,0.004707
2389.5,0.00506
2389,0.004141
2388.5,0.003842
2388,0.004131
2387.5,0.00431
2387,0.004258
2386.5,0.00429
2386,0.004262
2385.5,0.003862
2385,0.003747
2384.5,0.004024
2384,0.004287
2383.5,0.004342
2383,0.004265
2382.5,0.004129
2382,0.004195
2381.5,0.004181
2381,0.004021
2380.5,0.003935
2380,0.003322
2379.5,0.00285
2379,0.003534
2378.5,0.004124
2378,0.003743
2377.5,0.003271
2377,0.003374
2376.5,0.003845
2376,0.003524
2375.5,0.003508
2375,0.00361
2374.5,0.002945
2374,0.002885
2373.5,0.002145
2373,0.001372
2372.5,0.002045
2372,0.002355
2371.5,0.002692
2371,0.002658
2370.5,0.001777
2370,0.002298
2369.5,0.00258
2369,0.002903
2368.5,0.002945
2368,0.002462
2367.5,0.002455
2367,0.001239
2366.5,0.000779
2366,0.001744
2365.5,0.001329
2365,0.000605
2364.5,-0.000966
2364,-0.00048
2363.5,0.001563
2363,0.001367
2362.5,0.00135
2362,0.002102
2361.5,0.001302
2361,0.00085
2360.5,0.001916
2360,0.002875
2359.5,0.003823
2359,0.00234
2358.5,0.000369
2358,0.000978
2357.5,0.001096
2357,0.000185
2356.5,0.000336
2356,0.001314
2355.5,0.001152
2355,0.000947
2354.5,0.00057
2354,0.001378
2353.5,0.002154
2353,0.001513
2352.5,0.001
2352,0.001438
2351.5,0.001836
2351,0.001926
2350.5,0.001383
2350,0.000998
2349.5,0.002572
2349,0.003855
2348.5,0.003299
2348,0.002537
2347.5,0.002355
2347,0.003127
2346.5,0.003209
2346,0.002502
2345.5,0.002822
2345,0.002503
2344.5,0.001673
2344,0.001033
2343.5,0.000937
2343,0.001861
2342.5,0.002597
2342,0.002204
2341.5,0.00133
2341,0.000392
2340.5,0.000366
2340,0.001696
2339.5,0.002417
2339,0.001854
2338.5,0.00233
2338,0.00248
2337.5,0.001211
2337,0.00133
2336.5,0.002104
2336,0.001922
2335.5,0.002237
2335,0.002345
2334.5,0.002204
2334,0.002665
2333.5,0.002412
2333,0.001796
2332.5,0.000933
2332,0.002132
2331.5,0.002673
2331,0.001171
2330.5,0.001083
2330,0.003089
2329.5,0.00249
2329,0.001872
2328.5,0.002963
2328,0.003382
2327.5,0.002725
2327,0.002493
2326.5,0.003152
2326,0.003072
2325.5,0.002032
2325,0.002557
2324.5,0.004678
2324,0.004022
2323.5,0.002922
2323,0.003329
2322.5,0.002832
2322,0.002518
2321.5,0.002555
2321,0.002145
2320.5,0.003508
2320,0.003797
2319.5,0.002007
2319,0.001661
2318.5,0.002553
2318,0.003022
2317.5,0.002733
2317,0.002628
2316.5,0.002642
2316,0.002365
2315.5,0.00295
2315,0.003787
2314.5,0.003675
2314,0.003793
2313.5,0.003825
2313,0.003225
2312.5,0.00302
2312,0.003289
2311.5,0.003785
2311,0.004221
2310.5,0.003711
2310,0.00322
2309.5,0.003047
2309,0.003082
2308.5,0.003504
2308,0.003787
2307.5,0.003696
2307,0.003551
2306.5,0.00378
2306,0.003678
2305.5,0.003723
2305,0.003523
2304.5,0.003633
2304,0.004148
2303.5,0.004211
2303,0.003852
2302.5,0.003752
2302,0.003574
2301.5,0.003132
2301,0.003124
2300.5,0.003292
2300,0.003571
2299.5,0.004057
2299,0.003855
2298.5,0.003372
2298,0.003417
2297.5,0.003758
2297,0.004046
2296.5,0.004412
2296,0.004447
2295.5,0.003832
2295,0.003586
2294.5,0.003833
2294,0.003548
2293.5,0.003454
2293,0.004198
2292.5,0.004098
2292,0.00375
2291.5,0.004258
2291,0.004775
2290.5,0.004307
2290,0.004153
2289.5,0.004472
2289,0.003962
2288.5,0.003895
2288,0.004061
2287.5,0.003693
2287,0.003853
2286.5,0.004164
2286,0.004476
2285.5,0.004519
2285,0.004579
2284.5,0.004717
2284,0.004312
2283.5,0.003815
2283,0.003912
2282.5,0.004385
2282,0.004086
2281.5,0.003798
2281,0.00422
2280.5,0.004268
2280,0.004185
2279.5,0.004278
2279,0.004355
2278.5,0.004349
2278,0.004295
2277.5,0.004191
2277,0.004246
2276.5,0.004623
2276,0.004491
2275.5,0.004236
2275,0.004251
2274.5,0.004651
2274,0.004829
2273.5,0.004399
2273,0.003743
2272.5,0.003578
2272,0.004037
2271.5,0.004323
2271,0.004292
2270.5,0.00436
2270,0.004235
2269.5,0.003977
2269,0.004236
2268.5,0.004407
2268,0.004106
2267.5,0.003825
2267,0.003503
2266.5,0.00372
2266,0.004171
2265.5,0.004405
2265,0.0043
2264.5,0.004273
2264,0.00441
2263.5,0.004275
2263,0.003884
2262.5,0.004116
2262,0.004355
2261.5,0.004308
2261,0.004029
2260.5,0.003736
2260,0.00363
2259.5,0.003509
2259,0.003633
2258.5,0.0039
2258,0.004223
2257.5,0.004464
2257,0.004355
2256.5,0.003917
2256,0.003544
2255.5,0.004066
2255,0.004646
2254.5,0.004643
2254,0.004091
2253.5,0.003753
2253,0.004011
2252.5,0.003867
2252,0.003581
2251.5,0.003656
2251,0.003964
2250.5,0.004238
2250,0.00493
2249.5,0.005213
2249,0.004643
2248.5,0.004114
2248,0.003618
2247.5,0.003367
2247,0.003785
2246.5,0.004104
2246,0.003857
2245.5,0.003397
2245,0.003663
2244.5,0.00418
2244,0.00421
2243.5,0.004069
2243,0.004119
2242.5,0.00419
2242,0.004213
2241.5,0.004285
2241,0.003889
2240.5,0.003954
2240,0.004544
2239.5,0.004955
2239,0.004641
2238.5,0.004126
2238,0.003869
2237.5,0.003949
2237,0.004128
2236.5,0.00393
2236,0.003838
2235.5,0.004106
2235,0.004514
2234.5,0.004563
2234,0.004141
2233.5,0.003889
2233,0.004335
2232.5,0.004742
2232,0.004521
2231.5,0.004103
2231,0.003942
2230.5,0.003882
2230,0.003671
2229.5,0.003838
2229,0.004159
2228.5,0.004146
2228,0.004089
2227.5,0.004245
2227,0.004021
2226.5,0.003661
2226,0.004093
2225.5,0.004409
2225,0.004136
2224.5,0.004106
2224,0.004677
2223.5,0.005044
2223,0.004891
2222.5,0.004568
2222,0.004405
2221.5,0.003847
2221,0.003596
2220.5,0.004089
2220,0.004258
2219.5,0.004653
2219,0.004868
2218.5,0.004516
2218,0.004268
2217.5,0.00396
2217,0.003925
2216.5,0.004061
2216,0.004011
2215.5,0.004273
2215,0.004625
2214.5,0.004549
2214,0.00431
2213.5,0.00419
2213,0.004499
2212.5,0.004578
2212,0.004059
2211.5,0.0038
2211,0.004116
2210.5,0.00466
2210,0.004863
2209.5,0.004695
2209,0.004643
2208.5,0.004464
2208,0.004094
2207.5,0.004238
2207,0.004563
2206.5,0.004479
2206,0.004357
2205.5,0.004298
2205,0.004333
2204.5,0.004402
2204,0.004444
2203.5,0.004389
2203,0.00368
2202.5,0.00368
2202,0.00436
2201.5,0.004585
2201,0.004524
2200.5,0.004948
2200,0.00495
2199.5,0.004454
2199,0.00439
2198.5,0.004533
2198,0.004578
2197.5,0.004707
2197,0.004631
2196.5,0.004099
2196,0.004183
2195.5,0.004682
2195,0.004703
2194.5,0.004159
2194,0.004061
2193.5,0.004345
2193,0.004451
2192.5,0.004273
2192,0.004001
2191.5,0.003902
2191,0.004111
2190.5,0.00468
2190,0.004824
2189.5,0.004519
2189,0.004277
2188.5,0.004596
2188,0.004901
2187.5,0.004151
2187,0.004054
2186.5,0.004524
2186,0.004322
2185.5,0.004415
2185,0.005022
2184.5,0.004782
2184,0.004509
2183.5,0.003996
2183,0.003959
2182.5,0.004508
2182,0.004434
2181.5,0.004265
2181,0.004221
2180.5,0.00429
2180,0.004516
2179.5,0.00418
2179,0.004086
2178.5,0.004349
2178,0.004474
2177.5,0.004541
2177,0.004425
2176.5,0.004317
2176,0.004081
2175.5,0.003541
2175,0.003822
2174.5,0.004392
2174,0.004265
2173.5,0.004268
2173,0.004588
2172.5,0.004313
2172,0.00391
2171.5,0.003999
2171,0.004278
2170.5,0.004429
2170,0.004481
2169.5,0.004603
2169,0.00464
2168.5,0.004364
2168,0.004459
2167.5,0.004672
2167,0.004374
2166.5,0.004345
2166,0.004596
2165.5,0.004543
2165,0.004692
2164.5,0.004755
2164,0.0046
2163.5,0.00459
2163,0.004427
2162.5,0.004293
2162,0.004424
2161.5,0.004725
2161,0.004697
2160.5,0.004561
2160,0.00468
2159.5,0.004722
2159,0.00461
2158.5,0.004591
2158,0.004236
2157.5,0.004275
2157,0.004201
2156.5,0.004436
2156,0.004578
2155.5,0.004397
2155,0.004648
2154.5,0.004569
2154,0.004251
2153.5,0.004042
2153,0.004118
2152.5,0.003945
2152,0.003788
2151.5,0.004034
2151,0.004385
2150.5,0.00434
2150,0.003944
2149.5,0.003872
2149,0.004027
2148.5,0.004037
2148,0.00391
2147.5,0.003964
2147,0.004275
2146.5,0.004362
2146,0.004322
2145.5,0.004285
2145,0.004277
2144.5,0.003894
2144,0.003673
2143.5,0.004287
2143,0.004479
2142.5,0.004377
2142,0.004563
2141.5,0.004631
2141,0.004342
2140.5,0.004379
2140,0.004551
2139.5,0.005018
2139,0.004923
2138.5,0.004004
2138,0.003797
2137.5,0.004124
2137,0.004163
2136.5,0.004006
2136,0.004044
2135.5,0.004362
2135,0.004486
2134.5,0.004446
2134,0.004288
2133.5,0.00362
2133,0.003636
2132.5,0.004345
2132,0.004518
2131.5,0.004447
2131,0.003877
2130.5,0.003261
2130,0.00325
2129.5,0.003805
2129,0.004146
2128.5,0.003965
2128,0.00382
2127.5,0.004017
2127,0.0037
2126.5,0.003843
2126,0.0042
2125.5,0.004186
2125,0.004405
2124.5,0.004295
2124,0.003778
2123.5,0.003797
2123,0.004248
2122.5,0.004631
2122,0.004822
2121.5,0.004151
2121,0.003855
2120.5,0.003944
2120,0.003894
2119.5,0.004181
2119,0.004173
2118.5,0.004123
2118,0.004022
2117.5,0.004036
2117,0.004036
2116.5,0.003857
2116,0.004032
2115.5,0.004372
2115,0.004001
2114.5,0.003972
2114,0.004313
2113.5,0.004359
2113,0.004267
2112.5,0.004526
2112,0.004729
2111.5,0.004389
2111,0.004399
2110.5,0.004606
2110,0.004354
2109.5,0.004081
2109,0.004026
2108.5,0.003991
2108,0.004143
2107.5,0.004479
2107,0.004253
2106.5,0.004203
2106,0.00476
2105.5,0.004648
2105,0.003997
2104.5,0.004076
2104,0.004175
2103.5,0.004019
2103,0.003915
2102.5,0.003942
2102,0.004054
2101.5,0.004195
2101,0.004459
2100.5,0.004074
2100,0.00376
2099.5,0.004342
2099,0.004953
2098.5,0.004801
2098,0.004333
2097.5,0.004267
2097,0.004278
2096.5,0.004098
2096,0.003997
2095.5,0.004245
2095,0.004429
2094.5,0.00429
2094,0.004292
2093.5,0.004392
2093,0.004437
2092.5,0.004231
2092,0.003528
2091.5,0.003556
2091,0.004057
2090.5,0.004216
2090,0.004111
2089.5,0.004308
2089,0.004559
2088.5,0.004539
2088,0.004561
2087.5,0.004231
2087,0.004031
2086.5,0.004305
2086,0.004665
2085.5,0.004494
2085,0.003802
2084.5,0.00364
2084,0.004317
2083.5,0.004724
2083,0.004506
2082.5,0.004113
2082,0.004009
2081.5,0.004032
2081,0.004399
2080.5,0.004533
2080,0.004469
2079.5,0.004343
2079,0.004134
2078.5,0.00435
2078,0.004633
2077.5,0.004434
2077,0.00425
2076.5,0.004308
2076,0.004569
2075.5,0.004702
2075,0.004335
2074.5,0.004273
2074,0.004146
2073.5,0.003745
2073,0.003591
2072.5,0.003706
2072,0.004072
2071.5,0.004338
2071,0.004499
2070.5,0.00437
2070,0.004231
2069.5,0.004415
2069,0.004573
2068.5,0.004511
2068,0.004425
2067.5,0.004245
2067,0.004213
2066.5,0.004673
2066,0.004856
2065.5,0.004476
2065,0.004677
2064.5,0.004869
2064,0.004089
2063.5,0.003947
2063,0.004482
2062.5,0.004896
2062,0.005084
2061.5,0.004613
2061,0.004369
2060.5,0.004412
2060,0.004464
2059.5,0.004797
2059,0.004593
2058.5,0.004056
2058,0.004079
2057.5,0.004223
2057,0.004385
2056.5,0.004305
2056,0.004056
2055.5,0.004211
2055,0.004246
2054.5,0.004414
2054,0.004645
2053.5,0.004724
2053,0.004442
2052.5,0.004273
2052,0.004298
2051.5,0.004235
2051,0.004429
2050.5,0.004508
2050,0.004263
2049.5,0.004374
2049,0.004178
2048.5,0.004113
2048,0.0047
2047.5,0.004801
2047,0.004093
2046.5,0.003723
2046,0.003932
2045.5,0.004185
2045,0.00424
2044.5,0.004414
2044,0.004375
2043.5,0.004059
2043,0.004151
2042.5,0.004278
2042,0.004308
2041.5,0.004466
2041,0.004605
2040.5,0.004782
2040,0.004287
2039.5,0.003996
2039,0.004136
2038.5,0.004338
2038,0.004643
2037.5,0.004412
2037,0.004098
2036.5,0.004258
2036,0.004126
2035.5,0.003925
2035,0.003937
2034.5,0.004126
2034,0.004186
2033.5,0.004384
2033,0.004695
2032.5,0.004715
2032,0.004588
2031.5,0.004201
2031,0.003671
2030.5,0.003713
2030,0.004457
2029.5,0.004623
2029,0.004451
2028.5,0.004447
2028,0.004394
2027.5,0.004297
2027,0.00419
2026.5,0.004258
2026,0.004598
2025.5,0.004657
2025,0.00419
2024.5,0.004017
2024,0.004424
2023.5,0.004347
2023,0.003889
2022.5,0.003795
2022,0.004121
2021.5,0.004394
2021,0.004533
2020.5,0.004531
2020,0.004347
2019.5,0.004011
2019,0.003748
2018.5,0.004136
2018,0.004588
2017.5,0.004504
2017,0.004509
2016.5,0.004482
2016,0.003987
2015.5,0.003508
2015,0.003792
2014.5,0.00427
2014,0.004424
2013.5,0.004205
2013,0.004277
2012.5,0.004856
2012,0.005077
2011.5,0.004482
2011,0.003875
2010.5,0.00421
2010,0.004225
2009.5,0.004019
2009,0.003885
2008.5,0.003874
2008,0.004509
2007.5,0.004651
2007,0.00397
2006.5,0.003706
2006,0.004288
2005.5,0.00437
2005,0.004002
2004.5,0.00388
2004,0.004171
2003.5,0.004328
2003,0.004088
2002.5,0.003947
2002,0.003974
2001.5,0.003965
2001,0.003965
2000.5,0.004163
2000,0.004662
1999.5,0.004635
1999,0.004098
1998.5,0.003929
1998,0.003945
1997.5,0.004014
1997,0.003996
1996.5,0.004054
1996,0.00421
1995.5,0.00381
1995,0.003613
1994.5,0.003711
1994,0.003925
1993.5,0.004012
1993,0.003691
1992.5,0.003867
1992,0.004347
1991.5,0.003955
1991,0.003775
1990.5,0.004205
1990,0.004201
1989.5,0.004226
1989,0.004012
1988.5,0.00376
1988,0.004017
1987.5,0.004282
1987,0.004098
1986.5,0.003706
1986,0.003705
1985.5,0.003957
1985,0.004011
1984.5,0.003706
1984,0.003797
1983.5,0.004144
1983,0.004036
1982.5,0.003929
1982,0.004124
1981.5,0.004454
1981,0.004305
1980.5,0.003787
1980,0.003369
1979.5,0.003401
1979,0.003991
1978.5,0.003996
1978,0.003608
1977.5,0.003838
1977,0.003616
1976.5,0.003372
1976,0.003736
1975.5,0.004191
1975,0.00435
1974.5,0.004039
1974,0.003865
1973.5,0.004181
1973,0.004144
1972.5,0.003837
1972,0.003696
1971.5,0.003922
1971,0.004036
1970.5,0.003541
1970,0.003524
1969.5,0.003982
1969,0.004268
1968.5,0.004106
1968,0.004181
1967.5,0.004325
1967,0.003777
1966.5,0.003486
1966,0.004303
1965.5,0.004595
1965,0.004256
1964.5,0.004367
1964,0.004347
1963.5,0.003885
1963,0.003735
1962.5,0.004007
1962,0.004191
1961.5,0.004041
1961,0.003964
1960.5,0.004131
1960,0.00441
1959.5,0.004623
1959,0.004148
1958.5,0.004057
1958,0.004173
1957.5,0.004059
1957,0.004327
1956.5,0.004397
1956,0.00396
1955.5,0.003867
1955,0.00381
1954.5,0.003996
1954,0.004218
1953.5,0.004098
1953,0.004069
1952.5,0.004188
1952,0.00426
1951.5,0.003972
1951,0.003528
1950.5,0.003473
1950,0.003526
1949.5,0.003686
1949,0.00394
1948.5,0.003872
1948,0.003655
1947.5,0.003686
1947,0.004026
1946.5,0.004293
1946,0.00438
1945.5,0.004201
1945,0.003852
1944.5,0.004029
1944,0.004521
1943.5,0.004365
1943,0.003661
1942.5,0.003593
1942,0.003447
1941.5,0.003407
1941,0.00379
1940.5,0.003772
1940,0.003635
1939.5,0.003807
1939,0.004196
1938.5,0.004064
1938,0.003394
1937.5,0.003225
1937,0.003661
1936.5,0.004128
1936,0.004454
1935.5,0.004016
1935,0.003379
1934.5,0.003426
1934,0.003721
1933.5,0.003648
1933,0.00367
1932.5,0.003919
1932,0.003969
1931.5,0.003894
1931,0.004024
1930.5,0.004223
1930,0.0043
1929.5,0.004051
1929,0.003681
1928.5,0.003608
1928,0.003897
1927.5,0.004178
1927,0.004026
1926.5,0.004323
1926,0.004295
1925.5,0.00365
1925,0.003885
1924.5,0.004079
1924,0.003925
1923.5,0.003822
1923,0.003571
1922.5,0.003783
1922,0.004312
1921.5,0.004449
1921,0.004404
1920.5,0.004168
1920,0.003631
1919.5,0.003509
1919,0.003942
1918.5,0.003994
1918,0.003939
1917.5,0.003925
1917,0.00383
1916.5,0.004029
1916,0.003894
1915.5,0.003728
1915,0.003359
1914.5,0.003401
1914,0.00383
1913.5,0.00381
1913,0.003887
1912.5,0.003813
1912,0.003765
1911.5,0.003853
1911,0.004099
1910.5,0.004131
1910,0.003984
1909.5,0.003676
1909,0.003212
1908.5,0.003382
1908,0.003912
1907.5,0.003994
1907,0.003777
1906.5,0.003645
1906,0.003581
1905.5,0.003837
1905,0.003917
1904.5,0.003757
1904,0.003996
1903.5,0.003959
1903,0.003812
1902.5,0.00392
1902,0.003867
1901.5,0.003967
1901,0.00371
1900.5,0.003519
1900,0.003701
1899.5,0.00394
1899,0.004251
1898.5,0.004598
1898,0.004397
1897.5,0.003979
1897,0.003837
1896.5,0.003777
1896,0.003695
1895.5,0.00396
1895,0.0042
1894.5,0.003885
1894,0.003531
1893.5,0.003528
1893,0.003129
1892.5,0.003137
1892,0.004022
1891.5,0.004585
1891,0.00423
1890.5,0.003473
1890,0.003195
1889.5,0.003618
1889,0.004034
1888.5,0.004374
1888,0.004621
1887.5,0.004606
1887,0.004352
1886.5,0.004022
1886,0.003962
1885.5,0.003999
1885,0.003813
1884.5,0.003767
1884,0.003686
1883.5,0.003777
1883,0.004083
1882.5,0.004163
1882,0.003747
1881.5,0.003586
1881,0.003952
1880.5,0.003853
1880,0.00371
1879.5,0.003484
1879,0.003635
1878.5,0.004016
1878,0.004021
1877.5,0.003875
1877,0.003894
1876.5,0.004389
1876,0.004338
1875.5,0.0039
1875,0.004188
1874.5,0.004241
1874,0.003733
1873.5,0.003626
1873,0.003521
1872.5,0.003601
1872,0.004434
1871.5,0.004889
1871,0.003939
1870.5,0.003419
1870,0.003706
1869.5,0.003763
1869,0.003757
1868.5,0.004134
1868,0.004161
1867.5,0.003823
1867,0.003711
1866.5,0.004009
1866,0.004072
1865.5,0.003598
1865,0.003827
1864.5,0.004528
1864,0.004692
1863.5,0.00437
1863,0.004057
1862.5,0.00372
1862,0.003514
1861.5,0.003798
1861,0.004094
1860.5,0.004233
1860,0.00432
1859.5,0.004258
1859,0.004143
1858.5,0.004218
1858,0.004196
1857.5,0.004133
1857,0.003917
1856.5,0.003686
1856,0.003987
1855.5,0.004114
1855,0.003812
1854.5,0.00419
1854,0.004693
1853.5,0.004288
1853,0.003965
1852.5,0.004019
1852,0.003997
1851.5,0.0039
1851,0.003915
1850.5,0.004024
1850,0.003962
1849.5,0.004099
1849,0.003987
1848.5,0.003874
1848,0.004049
1847.5,0.004265
1847,0.004144
1846.5,0.004029
1846,0.004103
1845.5,0.004248
1845,0.003962
1844.5,0.003524
1844,0.003334
1843.5,0.003593
1843,0.004226
1842.5,0.004583
1842,0.00462
1841.5,0.004494
1841,0.004086
1840.5,0.003879
1840,0.004377
1839.5,0.004646
1839,0.00421
1838.5,0.003683
1838,0.003514
1837.5,0.003564
1837,0.003857
1836.5,0.004464
1836,0.004683
1835.5,0.004615
1835,0.004869
1834.5,0.004414
1834,0.003929
1833.5,0.004151
1833,0.004307
1832.5,0.004528
1832,0.004446
1831.5,0.004098
1831,0.003884
1830.5,0.004138
1830,0.004635
1829.5,0.004703
1829,0.005126
1828.5,0.005681
1828,0.005275
1827.5,0.004884
1827,0.004802
1826.5,0.004563
1826,0.004492
1825.5,0.004529
1825,0.0047
1824.5,0.005208
1824,0.00471
1823.5,0.004148
1823,0.00419
1822.5,0.004312
1822,0.004379
1821.5,0.004513
1821,0.004762
1820.5,0.004529
1820,0.004402
1819.5,0.004677
1819,0.004735
1818.5,0.004559
1818,0.004424
1817.5,0.00422
1817,0.004497
1816.5,0.004911
1816,0.00464
1815.5,0.004282
1815,0.004389
1814.5,0.004605
1814,0.004794
1813.5,0.005055
1813,0.005085
1812.5,0.004782
1812,0.004462
1811.5,0.004253
1811,0.004407
1810.5,0.004861
1810,0.005025
1809.5,0.004717
1809,0.004625
1808.5,0.004718
1808,0.004678
1807.5,0.004703
1807,0.004901
1806.5,0.004464
1806,0.004083
1805.5,0.004534
1805,0.005124
1804.5,0.005035
1804,0.004437
1803.5,0.004041
1803,0.004246
1802.5,0.00463
1802,0.004958
1801.5,0.004988
1801,0.004663
1800.5,0.004129
1800,0.004342
1799.5,0.00506
1799,0.00462
1798.5,0.004511
1798,0.005288
1797.5,0.005496
1797,0.004983
1796.5,0.004297
1796,0.004422
1795.5,0.004824
1795,0.004858
1794.5,0.004735
1794,0.004739
1793.5,0.004695
1793,0.004844
1792.5,0.005391
1792,0.005511
1791.5,0.005273
1791,0.005074
1790.5,0.005377
1790,0.005756
1789.5,0.005498
1789,0.005074
1788.5,0.004876
1788,0.004729
1787.5,0.00441
1787,0.004419
1786.5,0.004419
1786,0.004088
1785.5,0.004432
1785,0.004739
1784.5,0.004876
1784,0.004933
1783.5,0.004735
1783,0.005077
1782.5,0.005298
1782,0.005251
1781.5,0.005349
1781,0.005193
1780.5,0.004794
1780,0.004688
1779.5,0.00504
1779,0.005218
1778.5,0.00532
1778,0.005308
1777.5,0.00531
1777,0.00504
1776.5,0.004821
1776,0.005054
1775.5,0.005272
1775,0.005639
1774.5,0.005456
1774,0.005263
1773.5,0.005112
1773,0.004494
1772.5,0.004245
1772,0.005243
1771.5,0.005627
1771,0.005293
1770.5,0.006613
1770,0.007513
1769.5,0.007134
1769,0.006553
1768.5,0.005713
1768,0.006116
1767.5,0.007415
1767,0.007892
1766.5,0.008044
1766,0.008005
1765.5,0.008125
1765,0.008813
1764.5,0.009396
1764,0.009935
1763.5,0.010641
1763,0.011091
1762.5,0.011432
1762,0.012188
1761.5,0.013388
1761,0.014954
1760.5,0.017099
1760,0.019285
1759.5,0.020883
1759,0.022296
1758.5,0.024028
1758,0.026022
1757.5,0.028072
1757,0.029607
1756.5,0.0319
1756,0.035793
1755.5,0.039775
1755,0.043558
1754.5,0.046925
1754,0.05016
1753.5,0.053285
1753,0.05641
1752.5,0.059727
1752,0.062445
1751.5,0.062862
1751,0.065337
1750.5,0.074399
1750,0.082228
1749.5,0.086269
1749,0.088357
1748.5,0.091185
1748,0.097105
1747.5,0.101281
1747,0.103529
1746.5,0.106368
1746,0.108724
1745.5,0.111024
1745,0.112333
1744.5,0.112357
1744,0.112301
1743.5,0.111046
1743,0.109457
1742.5,0.110319
1742,0.111251
1741.5,0.109617
1741,0.106517
1740.5,0.103132
1740,0.09847
1739.5,0.094442
1739,0.093324
1738.5,0.091516
1738,0.087331
1737.5,0.082396
1737,0.078232
1736.5,0.074497
1736,0.070178
1735.5,0.065861
1735,0.061713
1734.5,0.057392
1734,0.054512
1733.5,0.053065
1733,0.051928
1732.5,0.04894
1732,0.044973
1731.5,0.041877
1731,0.038986
1730.5,0.036202
1730,0.034025
1729.5,0.031773
1729,0.0297
1728.5,0.027977
1728,0.026087
1727.5,0.024214
1727,0.023031
1726.5,0.021972
1726,0.020306
1725.5,0.019023
1725,0.01782
1724.5,0.017001
1724,0.01717
1723.5,0.017296
1723,0.016134
1722.5,0.014916
1722,0.014544
1721.5,0.01418
1721,0.013656
1720.5,0.013171
1720,0.012616
1719.5,0.012637
1719,0.012853
1718.5,0.012848
1718,0.013099
1717.5,0.012998
1717,0.012321
1716.5,0.012362
1716,0.012835
1715.5,0.012649
1715,0.01226
1714.5,0.012596
1714,0.013325
1713.5,0.013268
1713,0.013559
1712.5,0.014764
1712,0.015177
1711.5,0.014611
1711,0.014347
1710.5,0.01457
1710,0.015249
1709.5,0.016226
1709,0.016304
1708.5,0.016015
1708,0.016271
1707.5,0.016762
1707,0.01742
1706.5,0.017991
1706,0.018264
1705.5,0.018449
1705,0.019087
1704.5,0.019508
1704,0.01959
1703.5,0.02048
1703,0.020551
1702.5,0.020339
1702,0.02058
1701.5,0.021237
1701,0.02212
1700.5,0.021826
1700,0.021551
1699.5,0.023353
1699,0.023126
1698.5,0.022638
1698,0.023377
1697.5,0.024866
1697,0.025702
1696.5,0.025955
1696,0.027262
1695.5,0.028729
1695,0.026663
1694.5,0.024966
1694,0.026087
1693.5,0.027599
1693,0.02814
1692.5,0.028392
1692,0.028757
1691.5,0.029455
1691,0.029921
1690.5,0.030177
1690,0.031281
1689.5,0.031887
1689,0.032197
1688.5,0.033253
1688,0.033564
1687.5,0.033377
1687,0.034105
1686.5,0.034801
1686,0.035356
1685.5,0.036384
1685,0.039521
1684.5,0.042735
1684,0.042605
1683.5,0.041089
1683,0.038929
1682.5,0.035817
1682,0.03548
1681.5,0.037038
1681,0.038842
1680.5,0.040174
1680,0.041067
1679.5,0.041866
1679,0.041753
1678.5,0.041401
1678,0.041913
1677.5,0.042777
1677,0.04378
1676.5,0.045239
1676,0.047098
1675.5,0.050057
1675,0.051609
1674.5,0.047808
1674,0.044927
1673.5,0.045278
1673,0.046307
1672.5,0.047756
1672,0.049927
1671.5,0.05244
1671,0.052395
1670.5,0.050707
1670,0.05117
1669.5,0.054584
1669,0.057206
1668.5,0.055931
1668,0.054561
1667.5,0.052874
1667,0.052632
1666.5,0.054067
1666,0.055565
1665.5,0.056982
1665,0.057982
1664.5,0.058302
1664,0.059165
1663.5,0.061736
1663,0.065934
1662.5,0.067668
1662,0.064702
1661.5,0.063186
1661,0.06349
1660.5,0.064554
1660,0.065701
1659.5,0.066708
1659,0.067782
1658.5,0.069157
1658,0.070856
1657.5,0.071596
1657,0.072635
1656.5,0.073805
1656,0.074407
1655.5,0.0752
1655,0.077851
1654.5,0.083132
1654,0.086701
1653.5,0.088961
1653,0.094846
1652.5,0.096556
1652,0.076705
1651.5,0.065077
1651,0.066417
1650.5,0.070059
1650,0.073279
1649.5,0.075553
1649,0.077941
1648.5,0.082108
1648,0.085651
1647.5,0.086325
1647,0.083296
1646.5,0.080567
1646,0.083923
1645.5,0.08174
1645,0.073366
1644.5,0.070995
1644,0.072482
1643.5,0.074135
1643,0.075379
1642.5,0.076537
1642,0.076982
1641.5,0.07633
1641,0.075653
1640.5,0.076277
1640,0.077247
1639.5,0.076773
1639,0.076136
1638.5,0.076381
1638,0.078403
1637.5,0.081538
1637,0.080161
1636.5,0.077004
1636,0.079669
1635.5,0.087025
1635,0.088601
1634.5,0.075762
1634,0.066886
1633.5,0.065934
1633,0.067733
1632.5,0.070089
1632,0.071309
1631.5,0.071459
1631,0.071448
1630.5,0.071518
1630,0.071168
1629.5,0.070648
1629,0.070174
1628.5,0.070923
1628,0.073221
1627.5,0.073256
1627,0.069159
1626.5,0.065734
1626,0.063914
1625.5,0.063985
1625,0.06461
1624.5,0.065135
1624,0.067358
1623.5,0.070576
1623,0.068363
1622.5,0.06268
1622,0.058861
1621.5,0.057747
1621,0.058482
1620.5,0.058351
1620,0.057713
1619.5,0.057409
1619,0.056866
1618.5,0.056485
1618,0.056562
1617.5,0.057732
1617,0.061073
1616.5,0.063945
1616,0.057295
1615.5,0.05042
1615,0.049377
1614.5,0.049338
1614,0.049583
1613.5,0.050234
1613,0.049998
1612.5,0.049615
1612,0.049381
1611.5,0.048725
1611,0.048337
1610.5,0.048298
1610,0.048476
1609.5,0.048582
1609,0.047708
1608.5,0.046327
1608,0.045412
1607.5,0.045177
1607,0.045355
1606.5,0.045081
1606,0.044251
1605.5,0.043331
1605,0.043185
1604.5,0.043372
1604,0.043249
1603.5,0.043106
1603,0.043544
1602.5,0.042925
1602,0.041922
1601.5,0.041959
1601,0.041426
1600.5,0.04064
1600,0.040265
1599.5,0.04022
1599,0.040634
1598.5,0.040614
1598,0.040403
1597.5,0.040543
1597,0.040354
1596.5,0.039891
1596,0.039548
1595.5,0.039326
1595,0.039626
1594.5,0.039991
1594,0.039384
1593.5,0.038506
1593,0.038153
1592.5,0.038328
1592,0.039102
1591.5,0.039488
1591,0.03869
1590.5,0.038158
1590,0.038274
1589.5,0.038268
1589,0.038379
1588.5,0.038227
1588,0.037927
1587.5,0.038032
1587,0.03808
1586.5,0.037825
1586,0.037798
1585.5,0.038044
1585,0.038147
1584.5,0.038154
1584,0.038145
1583.5,0.038205
1583,0.038232
1582.5,0.03799
1582,0.03775
1581.5,0.037903
1581,0.037771
1580.5,0.037495
1580,0.037999
1579.5,0.03877
1579,0.038457
1578.5,0.038449
1578,0.039158
1577.5,0.039918
1577,0.040918
1576.5,0.043075
1576,0.045427
1575.5,0.042339
1575,0.038379
1574.5,0.03756
1574,0.037966
1573.5,0.039015
1573,0.03992
1572.5,0.040078
1572,0.039833
1571.5,0.03988
1571,0.040696
1570.5,0.04237
1570,0.044382
1569.5,0.045298
1569,0.04394
1568.5,0.041363
1568,0.039624
1567.5,0.039651
1567,0.040847
1566.5,0.04207
1566,0.042868
1565.5,0.043819
1565,0.04514
1564.5,0.045363
1564,0.043857
1563.5,0.043238
1563,0.043863
1562.5,0.044848
1562,0.045725
1561.5,0.046504
1561,0.047704
1560.5,0.050617
1560,0.054452
1559.5,0.055174
1559,0.055012
1558.5,0.057184
1558,0.054264
1557.5,0.046604
1557,0.042401
1556.5,0.042936
1556,0.046178
1555.5,0.049333
1555,0.052415
1554.5,0.057006
1554,0.059025
1553.5,0.05463
1553,0.051881
1552.5,0.052113
1552,0.053793
1551.5,0.055646
1551,0.056851
1550.5,0.059239
1550,0.061915
1549.5,0.062181
1549,0.059382
1548.5,0.057273
1548,0.057823
1547.5,0.059864
1547,0.061297
1546.5,0.062131
1546,0.063815
1545.5,0.067093
1545,0.068941
1544.5,0.065077
1544,0.062274
1543.5,0.064103
1543,0.065771
1542.5,0.06814
1542,0.071887
1541.5,0.068005
1541,0.063084
1540.5,0.065283
1540,0.070731
1539.5,0.073279
1539,0.075361
1538.5,0.069709
1538,0.058842
1537.5,0.056266
1537,0.057965
1536.5,0.060702
1536,0.062981
1535.5,0.064404
1535,0.064989
1534.5,0.066156
1534,0.06925
1533.5,0.071791
1533,0.067493
1532.5,0.060747
1532,0.060094
1531.5,0.061713
1531,0.061228
1530.5,0.060667
1530,0.060746
1529.5,0.060944
1529,0.062412
1528.5,0.064122
1528,0.063224
1527.5,0.062552
1527,0.062479
1526.5,0.060502
1526,0.060624
1525.5,0.063897
1525,0.06346
1524.5,0.058274
1524,0.05529
1523.5,0.056232
1523,0.059767
1522.5,0.062678
1522,0.061829
1521.5,0.062118
1521,0.063508
1520.5,0.060271
1520,0.056085
1519.5,0.051917
1519,0.051021
1518.5,0.053244
1518,0.056502
1517.5,0.060218
1517,0.062227
1516.5,0.059676
1516,0.054373
1515.5,0.052331
1515,0.053059
1514.5,0.052569
1514,0.052001
1513.5,0.053003
1513,0.054191
1512.5,0.055742
1512,0.05584
1511.5,0.0527
1511,0.050398
1510.5,0.049974
1510,0.051534
1509.5,0.052363
1509,0.051062
1508.5,0.051515
1508,0.052017
1507.5,0.05232
1507,0.055063
1506.5,0.056381
1506,0.053411
1505.5,0.050554
1505,0.042837
1504.5,0.039853
1504,0.041133
1503.5,0.042642
1503,0.043302
1502.5,0.043417
1502,0.043494
1501.5,0.043447
1501,0.042792
1500.5,0.041919
1500,0.041339
1499.5,0.041151
1499,0.042786
1498.5,0.044125
1498,0.040805
1497.5,0.038585
1497,0.038819
1496.5,0.040287
1496,0.042592
1495.5,0.039816
1495,0.036485
1494.5,0.035939
1494,0.036281
1493.5,0.035937
1493,0.035676
1492.5,0.035874
1492,0.03586
1491.5,0.03562
1491,0.036243
1490.5,0.036811
1490,0.036005
1489.5,0.03485
1489,0.033484
1488.5,0.032194
1488,0.03203
1487.5,0.032613
1487,0.032694
1486.5,0.032201
1486,0.031901
1485.5,0.031272
1485,0.030991
1484.5,0.031096
1484,0.031333
1483.5,0.031082
1483,0.030404
1482.5,0.030479
1482,0.030933
1481.5,0.031109
1481,0.031191
1480.5,0.030668
1480,0.030659
1479.5,0.030788
1479,0.030666
1478.5,0.030861
1478,0.031198
1477.5,0.031192
1477,0.031479
1476.5,0.032463
1476,0.032981
1475.5,0.032579
1475,0.032964
1474.5,0.034376
1474,0.035624
1473.5,0.037092
1473,0.038674
1472.5,0.03931
1472,0.039784
1471.5,0.04151
1471,0.043819
1470.5,0.045511
1470,0.048148
1469.5,0.051872
1469,0.055084
1468.5,0.057751
1468,0.060584
1467.5,0.062843
1467,0.06456
1466.5,0.065956
1466,0.067147
1465.5,0.068191
1465,0.068877
1464.5,0.06833
1464,0.067867
1463.5,0.068802
1463,0.069106
1462.5,0.068835
1462,0.069025
1461.5,0.06952
1461,0.069678
1460.5,0.069472
1460,0.069452
1459.5,0.069534
1459,0.069915
1458.5,0.07062
1458,0.071293
1457.5,0.071016
1457,0.071094
1456.5,0.072104
1456,0.070778
1455.5,0.069943
1455,0.06912
1454.5,0.068262
1454,0.067811
1453.5,0.067004
1453,0.066585
1452.5,0.066262
1452,0.065589
1451.5,0.063352
1451,0.062171
1450.5,0.062582
1450,0.062273
1449.5,0.061207
1449,0.060309
1448.5,0.060003
1448,0.060222
1447.5,0.059526
1447,0.058133
1446.5,0.057732
1446,0.057991
1445.5,0.05791
1445,0.057439
1444.5,0.05688
1444,0.056798
1443.5,0.056912
1443,0.056521
1442.5,0.055718
1442,0.055217
1441.5,0.055494
1441,0.055648
1440.5,0.055471
1440,0.055663
1439.5,0.055132
1439,0.053994
1438.5,0.053752
1438,0.054024
1437.5,0.05423
1437,0.054982
1436.5,0.054835
1436,0.051999
1435.5,0.049823
1435,0.04929
1434.5,0.049376
1434,0.050046
1433.5,0.050586
1433,0.050357
1432.5,0.0497
1432,0.048778
1431.5,0.04798
1431,0.047747
1430.5,0.047557
1430,0.047782
1429.5,0.046953
1429,0.04544
1428.5,0.044576
1428,0.043962
1427.5,0.043696
1427,0.043976
1426.5,0.043929
1426,0.043366
1425.5,0.043328
1425,0.043524
1424.5,0.043782
1424,0.044565
1423.5,0.044493
1423,0.043963
1422.5,0.043485
1422,0.043555
1421.5,0.044062
1421,0.044471
1420.5,0.044958
1420,0.046066
1419.5,0.047987
1419,0.04888
1418.5,0.047289
1418,0.046207
1417.5,0.047359
1417,0.048402
1416.5,0.047307
1416,0.04663
1415.5,0.047259
1415,0.047357
1414.5,0.047213
1414,0.046823
1413.5,0.046451
1413,0.046764
1412.5,0.046735
1412,0.046438
1411.5,0.046139
1411,0.045767
1410.5,0.045708
1410,0.04567
1409.5,0.045361
1409,0.04512
1408.5,0.045208
1408,0.045416
1407.5,0.045627
1407,0.045892
1406.5,0.045985
1406,0.045793
1405.5,0.046086
1405,0.047324
1404.5,0.047551
1404,0.047289
1403.5,0.04774
1403,0.048008
1402.5,0.048419
1402,0.048417
1401.5,0.048524
1401,0.049454
1400.5,0.049513
1400,0.049496
1399.5,0.050977
1399,0.05164
1398.5,0.049962
1398,0.049253
1397.5,0.049175
1397,0.048637
1396.5,0.04878
1396,0.049442
1395.5,0.049444
1395,0.049643
1394.5,0.050833
1394,0.049543
1393.5,0.04713
1393,0.047121
1392.5,0.048389
1392,0.048676
1391.5,0.04793
1391,0.048026
1390.5,0.048452
1390,0.048515
1389.5,0.048108
1389,0.047895
1388.5,0.047969
1388,0.048797
1387.5,0.049678
1387,0.04856
1386.5,0.047274
1386,0.047206
1385.5,0.047231
1385,0.047315
1384.5,0.047889
1384,0.047869
1383.5,0.04791
1383,0.048347
1382.5,0.047982
1382,0.047549
1381.5,0.047751
1381,0.048195
1380.5,0.048854
1380,0.049335
1379.5,0.049483
1379,0.04957
1378.5,0.049266
1378,0.049695
1377.5,0.049959
1377,0.049466
1376.5,0.049103
1376,0.04835
1375.5,0.047673
1375,0.047986
1374.5,0.048019
1374,0.047056
1373.5,0.045714
1373,0.044964
1372.5,0.044596
1372,0.044009
1371.5,0.043575
1371,0.043079
1370.5,0.042307
1370,0.042388
1369.5,0.042762
1369,0.042655
1368.5,0.042614
1368,0.042344
1367.5,0.041977
1367,0.041961
1366.5,0.042037
1366,0.041423
1365.5,0.039936
1365,0.039013
1364.5,0.039482
1364,0.039869
1363.5,0.040794
1363,0.041795
1362.5,0.041004
1362,0.03976
1361.5,0.040221
1361,0.040958
1360.5,0.040794
1360,0.040122
1359.5,0.040601
1359,0.041359
1358.5,0.041505
1358,0.041301
1357.5,0.040951
1357,0.040771
1356.5,0.040389
1356,0.040238
1355.5,0.040627
1355,0.040969
1354.5,0.041029
1354,0.040541
1353.5,0.040247
1353,0.040403
1352.5,0.040167
1352,0.039994
1351.5,0.040569
1351,0.041093
1350.5,0.040712
1350,0.040472
1349.5,0.040714
1349,0.041211
1348.5,0.041339
1348,0.041302
1347.5,0.041483
1347,0.041831
1346.5,0.042223
1346,0.042216
1345.5,0.042459
1345,0.043031
1344.5,0.042949
1344,0.042773
1343.5,0.043194
1343,0.043377
1342.5,0.043458
1342,0.043892
1341.5,0.043945
1341,0.043754
1340.5,0.044306
1340,0.0446
1339.5,0.044431
1339,0.044644
1338.5,0.04469
1338,0.044072
1337.5,0.043445
1337,0.043588
1336.5,0.044376
1336,0.04431
1335.5,0.043881
1335,0.044117
1334.5,0.044589
1334,0.044347
1333.5,0.044073
1333,0.044426
1332.5,0.044374
1332,0.044138
1331.5,0.044141
1331,0.044426
1330.5,0.044611
1330,0.044435
1329.5,0.044653
1329,0.044762
1328.5,0.044334
1328,0.044257
1327.5,0.044877
1327,0.045603
1326.5,0.045668
1326,0.045953
1325.5,0.04623
1325,0.046272
1324.5,0.046329
1324,0.046655
1323.5,0.047161
1323,0.04723
1322.5,0.047252
1322,0.04752
1321.5,0.047799
1321,0.048036
1320.5,0.048654
1320,0.048858
1319.5,0.048469
1319,0.048693
1318.5,0.048756
1318,0.048576
1317.5,0.048623
1317,0.049092
1316.5,0.049162
1316,0.048815
1315.5,0.049253
1315,0.049803
1314.5,0.04957
1314,0.049322
1313.5,0.049511
1313,0.049736
1312.5,0.049897
1312,0.050042
1311.5,0.049918
1311,0.050102
1310.5,0.050325
1310,0.050247
1309.5,0.049851
1309,0.04981
1308.5,0.050254
1308,0.050453
1307.5,0.050545
1307,0.050777
1306.5,0.050924
1306,0.050861
1305.5,0.050785
1305,0.050675
1304.5,0.050649
1304,0.051331
1303.5,0.051907
1303,0.051568
1302.5,0.051198
1302,0.051232
1301.5,0.051482
1301,0.051625
1300.5,0.05195
1300,0.05204
1299.5,0.05181
1299,0.051708
1298.5,0.051986
1298,0.052038
1297.5,0.05176
1297,0.051788
1296.5,0.051848
1296,0.051536
1295.5,0.051536
1295,0.051924
1294.5,0.051999
1294,0.051885
1293.5,0.051523
1293,0.051435
1292.5,0.052219
1292,0.052234
1291.5,0.051676
1291,0.051573
1290.5,0.051547
1290,0.051696
1289.5,0.052279
1289,0.052651
1288.5,0.052406
1288,0.052273
1287.5,0.052614
1287,0.052743
1286.5,0.052844
1286,0.053134
1285.5,0.053405
1285,0.053776
1284.5,0.054441
1284,0.055226
1283.5,0.055644
1283,0.05575
1282.5,0.055471
1282,0.055929
1281.5,0.056121
1281,0.055872
1280.5,0.056115
1280,0.056542
1279.5,0.057084
1279,0.057384
1278.5,0.057639
1278,0.057723
1277.5,0.057282
1277,0.05724
1276.5,0.057399
1276,0.057288
1275.5,0.057441
1275,0.05767
1274.5,0.05781
1274,0.057789
1273.5,0.057984
1273,0.05802
1272.5,0.057721
1272,0.057921
1271.5,0.058062
1271,0.058094
1270.5,0.058647
1270,0.05893
1269.5,0.058539
1269,0.058556
1268.5,0.059412
1268,0.059564
1267.5,0.059887
1267,0.060176
1266.5,0.059874
1266,0.060117
1265.5,0.060443
1265,0.060275
1264.5,0.060359
1264,0.061031
1263.5,0.061119
1263,0.061131
1262.5,0.061548
1262,0.061877
1261.5,0.062412
1261,0.062954
1260.5,0.062839
1260,0.062602
1259.5,0.062424
1259,0.062866
1258.5,0.063772
1258,0.063638
1257.5,0.063511
1257,0.063841
1256.5,0.063586
1256,0.063713
1255.5,0.063847
1255,0.06421
1254.5,0.064833
1254,0.064914
1253.5,0.064848
1253,0.065225
1252.5,0.065501
1252,0.065324
1251.5,0.06557
1251,0.06572
1250.5,0.066301
1250,0.067315
1249.5,0.067613
1249,0.067718
1248.5,0.067567
1248,0.067577
1247.5,0.068131
1247,0.068934
1246.5,0.069865
1246,0.070201
1245.5,0.070106
1245,0.07049
1244.5,0.071012
1244,0.07127
1243.5,0.07133
1243,0.071446
1242.5,0.071704
1242,0.07192
1241.5,0.071838
1241,0.071662
1240.5,0.072382
1240,0.072639
1239.5,0.072124
1239,0.071721
1238.5,0.071522
1238,0.071473
1237.5,0.071047
1237,0.070431
1236.5,0.069748
1236,0.069077
1235.5,0.068749
1235,0.068528
1234.5,0.068024
1234,0.067282
1233.5,0.066679
1233,0.066353
1232.5,0.065896
1232,0.065148
1231.5,0.064598
1231,0.064396
1230.5,0.063878
1230,0.063084
1229.5,0.062956
1229,0.0626
1228.5,0.062322
1228,0.062303
1227.5,0.062015
1227,0.061518
1226.5,0.061243
1226,0.061205
1225.5,0.061077
1225,0.06066
1224.5,0.060193
1224,0.060654
1223.5,0.061358
1223,0.06115
1222.5,0.061043
1222,0.061241
1221.5,0.061674
1221,0.061768
1220.5,0.060898
1220,0.059625
1219.5,0.058609
1219,0.057925
1218.5,0.056613
1218,0.054775
1217.5,0.053227
1217,0.052442
1216.5,0.052814
1216,0.053385
1215.5,0.053068
1215,0.053437
1214.5,0.054803
1214,0.05549
1213.5,0.05555
1213,0.056129
1212.5,0.056832
1212,0.056483
1211.5,0.055904
1211,0.056353
1210.5,0.056883
1210,0.056489
1209.5,0.056066
1209,0.055985
1208.5,0.056097
1208,0.056396
1207.5,0.056496
1207,0.056202
1206.5,0.055831
1206,0.055571
1205.5,0.055494
1205,0.055354
1204.5,0.055528
1204,0.056121
1203.5,0.056662
1203,0.057085
1202.5,0.057123
1202,0.057019
1201.5,0.05725
1201,0.057942
1200.5,0.058393
1200,0.05878
1199.5,0.05926
1199,0.059564
1198.5,0.060235
1198,0.061161
1197.5,0.061655
1197,0.062311
1196.5,0.062701
1196,0.062803
1195.5,0.063596
1195,0.064562
1194.5,0.065316
1194,0.066106
1193.5,0.066517
1193,0.067135
1192.5,0.0681
1192,0.069155
1191.5,0.070129
1191,0.070987
1190.5,0.071196
1190,0.070969
1189.5,0.07153
1189,0.072177
1188.5,0.072678
1188,0.073423
1187.5,0.074295
1187,0.075369
1186.5,0.076348
1186,0.077055
1185.5,0.077281
1185,0.077485
1184.5,0.078508
1184,0.079448
1183.5,0.07993
1183,0.080374
1182.5,0.08147
1182,0.083011
1181.5,0.083483
1181,0.083385
1180.5,0.084377
1180,0.08512
1179.5,0.085675
1179,0.086837
1178.5,0.087461
1178,0.08841
1177.5,0.089599
1177,0.089936
1176.5,0.09026
1176,0.091618
1175.5,0.093737
1175,0.094556
1174.5,0.094562
1174,0.09536
1173.5,0.096763
1173,0.098129
1172.5,0.09919
1172,0.099959
1171.5,0.100886
1171,0.10185
1170.5,0.102387
1170,0.103817
1169.5,0.104978
1169,0.105478
1168.5,0.105905
1168,0.10643
1167.5,0.108018
1167,0.10905
1166.5,0.10935
1166,0.110201
1165.5,0.110817
1165,0.110782
1164.5,0.111414
1164,0.112471
1163.5,0.113506
1163,0.114219
1162.5,0.11432
1162,0.114609
1161.5,0.115393
1161,0.116098
1160.5,0.116072
1160,0.116681
1159.5,0.117151
1159,0.116416
1158.5,0.116514
1158,0.116976
1157.5,0.116501
1157,0.11605
1156.5,0.116152
1156,0.115929
1155.5,0.115717
1155,0.115988
1154.5,0.115761
1154,0.114894
1153.5,0.114288
1153,0.114014
1152.5,0.113564
1152,0.112992
1151.5,0.112627
1151,0.112629
1150.5,0.112644
1150,0.112282
1149.5,0.111964
1149,0.111589
1148.5,0.110962
1148,0.109813
1147.5,0.109474
1147,0.109271
1146.5,0.108467
1146,0.107872
1145.5,0.107797
1145,0.107426
1144.5,0.106932
1144,0.106455
1143.5,0.105865
1143,0.105802
1142.5,0.105366
1142,0.104244
1141.5,0.104388
1141,0.104794
1140.5,0.104021
1140,0.102892
1139.5,0.10163
1139,0.100856
1138.5,0.099927
1138,0.098988
1137.5,0.098624
1137,0.097536
1136.5,0.095613
1136,0.094296
1135.5,0.093632
1135,0.092593
1134.5,0.091326
1134,0.090088
1133.5,0.088859
1133,0.087742
1132.5,0.086517
1132,0.084758
1131.5,0.084164
1131,0.083828
1130.5,0.082827
1130,0.082236
1129.5,0.082142
1129,0.081578
1128.5,0.081062
1128,0.080651
1127.5,0.080647
1127,0.08097
1126.5,0.081084
1126,0.080613
1125.5,0.080474
1125,0.081758
1124.5,0.082865
1124,0.082492
1123.5,0.08213
1123,0.082558
1122.5,0.083792
1122,0.085072
1121.5,0.085122
1121,0.084899
1120.5,0.085649
1120,0.086823
1119.5,0.08786
1119,0.087665
1118.5,0.08691
1118,0.087408
1117.5,0.087633
1117,0.086835
1116.5,0.086746
1116,0.087317
1115.5,0.086964
1115,0.086228
1114.5,0.085501
1114,0.084418
1113.5,0.084782
1113,0.084957
1112.5,0.084589
1112,0.084359
1111.5,0.084236
1111,0.084401
1110.5,0.084281
1110,0.084279
1109.5,0.083985
1109,0.083927
1108.5,0.084361
1108,0.084148
1107.5,0.084631
1107,0.085225
1106.5,0.085528
1106,0.085867
1105.5,0.086671
1105,0.087288
1104.5,0.087041
1104,0.088241
1103.5,0.089777
1103,0.090417
1102.5,0.090556
1102,0.090598
1101.5,0.090772
1101,0.091117
1100.5,0.091563
1100,0.092134
1099.5,0.092452
1099,0.092847
1098.5,0.093471
1098,0.094029
1097.5,0.094632
1097,0.094261
1096.5,0.093586
1096,0.093632
1095.5,0.094119
1095,0.094609
1094.5,0.094531
1094,0.094537
1093.5,0.095089
1093,0.094813
1092.5,0.093615
1092,0.09317
1091.5,0.093724
1091,0.093784
1090.5,0.093895
1090,0.094039
1089.5,0.093221
1089,0.092819
1088.5,0.093445
1088,0.093948
1087.5,0.094006
1087,0.093354
1086.5,0.09279
1086,0.092577
1085.5,0.092626
1085,0.092613
1084.5,0.092452
1084,0.092519
1083.5,0.09263
1083,0.091995
1082.5,0.091995
1082,0.092197
1081.5,0.091788
1081,0.091493
1080.5,0.09124
1080,0.090641
1079.5,0.090594
1079,0.091223
1078.5,0.091185
1078,0.090005
1077.5,0.089042
1077,0.088826
1076.5,0.088369
1076,0.086972
1075.5,0.086485
1075,0.086914
1074.5,0.086519
1074,0.085689
1073.5,0.085282
1073,0.084566
1072.5,0.084222
1072,0.084407
1071.5,0.0838
1071,0.082939
1070.5,0.082624
1070,0.08246
1069.5,0.082114
1069,0.082462
1068.5,0.083471
1068,0.082841
1067.5,0.08153
1067,0.08163
1066.5,0.082781
1066,0.083328
1065.5,0.082963
1065,0.082785
1064.5,0.082496
1064,0.082348
1063.5,0.08261
1063,0.082835
1062.5,0.082745
1062,0.082656
1061.5,0.083393
1061,0.083698
1060.5,0.083027
1060,0.082578
1059.5,0.083296
1059,0.084154
1058.5,0.08371
1058,0.083451
1057.5,0.084122
1057,0.084613
1056.5,0.085203
1056,0.084987
1055.5,0.084371
1055,0.084732
1054.5,0.084864
1054,0.085657
1053.5,0.086442
1053,0.086059
1052.5,0.085663
1052,0.085028
1051.5,0.085443
1051,0.086044
1050.5,0.085554
1050,0.085008
1049.5,0.085201
1049,0.085203
1048.5,0.084816
1048,0.084738
1047.5,0.084126
1047,0.084367
1046.5,0.085427
1046,0.085661
1045.5,0.085554
1045,0.085949
1044.5,0.086317
1044,0.086184
1043.5,0.085903
1043,0.085766
1042.5,0.085493
1042,0.086065
1041.5,0.086944
1041,0.087203
1040.5,0.087507
1040,0.087734
1039.5,0.087331
1039,0.087556
1038.5,0.088111
1038,0.088465
1037.5,0.088558
1037,0.088254
1036.5,0.088497
1036,0.088741
1035.5,0.088668
1035,0.088548
1034.5,0.088971
1034,0.089294
1033.5,0.089327
1033,0.089331
1032.5,0.090303
1032,0.091315
1031.5,0.090521
1031,0.089744
1030.5,0.090082
1030,0.090345
1029.5,0.090911
1029,0.09127
1028.5,0.091387
1028,0.091381
1027.5,0.0907
1027,0.09018
1026.5,0.090772
1026,0.091199
1025.5,0.091205
1025,0.090925
1024.5,0.090349
1024,0.090637
1023.5,0.090778
1023,0.089866
1022.5,0.088961
1022,0.089089
1021.5,0.089583
1021,0.089304
1020.5,0.089182
1020,0.089553
1019.5,0.088743
1019,0.087596
1018.5,0.087313
1018,0.087465
1017.5,0.087675
1017,0.08712
1016.5,0.086722
1016,0.086368
1015.5,0.085744
1015,0.085235
1014.5,0.084375
1014,0.083471
1013.5,0.083692
1013,0.083431
1012.5,0.082448
1012,0.082008
1011.5,0.081936
1011,0.08155
1010.5,0.080791
1010,0.080507
1009.5,0.07987
1009,0.078718
1008.5,0.078435
1008,0.078212
1007.5,0.078149
1007,0.078564
1006.5,0.0783
1006,0.077069
1005.5,0.075921
1005,0.075809
1004.5,0.075704
1004,0.074593
1003.5,0.073611
1003,0.074102
1002.5,0.074393
1002,0.073682
1001.5,0.073285
1001,0.073566
1000.5,0.073801
1000,0.073784
